timestamp,ppg_red,ppg_ir,ppg_ambient
1000.000000,0.000000,0.000000,0.100000
1000.015625,0.053265,0.053265,0.100000
1000.031250,0.201711,0.201711,0.100000
1000.046875,0.413711,0.413711,0.100000
1000.062500,0.644095,0.644095,0.100000
1000.078125,0.843779,0.843779,0.100000
1000.093750,0.970217,0.970217,0.100000
1000.109375,0.996470,0.996470,0.100000
1000.125000,0.916946,0.916946,0.100000
1000.140625,0.748588,0.748588,0.100000
1000.156250,0.527265,0.527265,0.100000
1000.171875,0.300133,0.300133,0.100000
1000.187500,0.115585,0.115585,0.100000
1000.203125,0.012940,0.012940,0.100000
1000.218750,0.000000,0.000000,0.100000
1000.234375,0.000000,0.000000,0.100000
1000.250000,0.000000,0.000000,0.100000
1000.265625,0.000000,0.000000,0.100000
1000.281250,0.000000,0.000000,0.100000
1000.296875,0.000000,0.000000,0.100000
1000.312500,0.000000,0.000000,0.100000
1000.328125,0.000000,0.000000,0.100000
1000.343750,0.000000,0.000000,0.100000
1000.359375,0.000000,0.000000,0.100000
1000.375000,0.000000,0.000000,0.100000
1000.390625,0.000000,0.000000,0.100000
1000.406250,0.000000,0.000000,0.100000
1000.421875,0.000000,0.000000,0.100000
1000.437500,0.000000,0.000000,0.100000
1000.453125,0.000000,0.000000,0.100000
1000.468750,0.000000,0.000000,0.100000
1000.484375,0.000000,0.000000,0.100000
1000.500000,0.000000,0.000000,0.100000
1000.515625,0.000000,0.000000,0.100000
1000.531250,0.000000,0.000000,0.100000
1000.546875,0.000000,0.000000,0.100000
1000.562500,0.000000,0.000000,0.100000
1000.578125,0.000000,0.000000,0.100000
1000.593750,0.000000,0.000000,0.100000
1000.609375,0.000000,0.000000,0.100000
1000.625000,0.000000,0.000000,0.100000
1000.640625,0.000000,0.000000,0.100000
1000.656250,0.000000,0.000000,0.100000
1000.671875,0.000000,0.000000,0.100000
1000.687500,0.000000,0.000000,0.100000
1000.703125,0.000000,0.000000,0.100000
1000.718750,0.000000,0.000000,0.100000
1000.734375,0.000000,0.000000,0.100000
1000.750000,0.000000,0.000000,0.100000
1000.765625,0.000000,0.000000,0.100000
1000.781250,0.000000,0.000000,0.100000
1000.796875,0.000000,0.000000,0.100000
1000.812500,0.000000,0.000000,0.100000
1000.828125,0.000000,0.000000,0.100000
1000.843750,0.000096,0.000096,0.100000
1000.859375,0.057741,0.057741,0.100000
1000.875000,0.209614,0.209614,0.100000
1000.890625,0.423357,0.423357,0.100000
1000.906250,0.653429,0.653429,0.100000
1000.921875,0.850812,0.850812,0.100000
1000.937500,0.973451,0.973451,0.100000
1000.953125,0.995216,0.995216,0.100000
1000.968750,0.911471,0.911471,0.100000
1000.984375,0.740058,0.740058,0.100000
1001.000000,0.517498,0.517498,0.100000
1001.015625,0.291210,0.291210,0.100000
1001.031250,0.109407,0.109407,0.100000
1001.046875,0.010824,0.010824,0.100000
1001.062500,0.000000,0.000000,0.100000
1001.078125,0.000000,0.000000,0.100000
1001.093750,0.000000,0.000000,0.100000
1001.109375,0.000000,0.000000,0.100000
1001.125000,0.000000,0.000000,0.100000
1001.140625,0.000000,0.000000,0.100000
1001.156250,0.000000,0.000000,0.100000
1001.171875,0.000000,0.000000,0.100000
1001.187500,0.000000,0.000000,0.100000
1001.203125,0.000000,0.000000,0.100000
1001.218750,0.000000,0.000000,0.100000
1001.234375,0.000000,0.000000,0.100000
1001.250000,0.000000,0.000000,0.100000
1001.265625,0.000000,0.000000,0.100000
1001.281250,0.000000,0.000000,0.100000
1001.296875,0.000000,0.000000,0.100000
1001.312500,0.000000,0.000000,0.100000
1001.328125,0.000000,0.000000,0.100000
1001.343750,0.000000,0.000000,0.100000
1001.359375,0.000000,0.000000,0.100000
1001.375000,0.000000,0.000000,0.100000
1001.390625,0.000000,0.000000,0.100000
1001.406250,0.000000,0.000000,0.100000
1001.421875,0.000000,0.000000,0.100000
1001.437500,0.000000,0.000000,0.100000
1001.453125,0.000000,0.000000,0.100000
1001.468750,0.000000,0.000000,0.100000
1001.484375,0.000000,0.000000,0.100000
1001.500000,0.000000,0.000000,0.100000
1001.515625,0.000000,0.000000,0.100000
1001.531250,0.000000,0.000000,0.100000
1001.546875,0.000000,0.000000,0.100000
1001.562500,0.000000,0.000000,0.100000
1001.578125,0.000000,0.000000,0.100000
1001.593750,0.000000,0.000000,0.100000
1001.609375,0.000000,0.000000,0.100000
1001.625000,0.000000,0.000000,0.100000
1001.640625,0.000000,0.000000,0.100000
1001.656250,0.000000,0.000000,0.100000
1001.671875,0.000000,0.000000,0.100000
1001.687500,0.000382,0.000382,0.100000
1001.703125,0.062386,0.062386,0.100000
1001.718750,0.217628,0.217628,0.100000
1001.734375,0.433032,0.433032,0.100000
1001.750000,0.662704,0.662704,0.100000
1001.765625,0.857711,0.857711,0.100000
1001.781250,0.976503,0.976503,0.100000
1001.796875,0.993772,0.993772,0.100000
1001.812500,0.905838,0.905838,0.100000
1001.828125,0.731436,0.731436,0.100000
1001.843750,0.507724,0.507724,0.100000
1001.859375,0.282367,0.282367,0.100000
1001.875000,0.103378,0.103378,0.100000
1001.890625,0.008894,0.008894,0.100000
1001.906250,0.000000,0.000000,0.100000
1001.921875,0.000000,0.000000,0.100000
1001.937500,0.000000,0.000000,0.100000
1001.953125,0.000000,0.000000,0.100000
1001.968750,0.000000,0.000000,0.100000
1001.984375,0.000000,0.000000,0.100000
1002.000000,0.000000,0.000000,0.100000
1002.015625,0.000000,0.000000,0.100000
1002.031250,0.000000,0.000000,0.100000
1002.046875,0.000000,0.000000,0.100000
1002.062500,0.000000,0.000000,0.100000
1002.078125,0.000000,0.000000,0.100000
1002.093750,0.000000,0.000000,0.100000
1002.109375,0.000000,0.000000,0.100000
1002.125000,0.000000,0.000000,0.100000
1002.140625,0.000000,0.000000,0.100000
1002.156250,0.000000,0.000000,0.100000
1002.171875,0.000000,0.000000,0.100000
1002.187500,0.000000,0.000000,0.100000
1002.203125,0.000000,0.000000,0.100000
1002.218750,0.000000,0.000000,0.100000
1002.234375,0.000000,0.000000,0.100000
1002.250000,0.000000,0.000000,0.100000
1002.265625,0.000000,0.000000,0.100000
1002.281250,0.000000,0.000000,0.100000
1002.296875,0.000000,0.000000,0.100000
1002.312500,0.000000,0.000000,0.100000
1002.328125,0.000000,0.000000,0.100000
1002.343750,0.000000,0.000000,0.100000
1002.359375,0.000000,0.000000,0.100000
1002.375000,0.000000,0.000000,0.100000
1002.390625,0.000000,0.000000,0.100000
1002.406250,0.000000,0.000000,0.100000
1002.421875,0.000000,0.000000,0.100000
1002.437500,0.000000,0.000000,0.100000
1002.453125,0.000000,0.000000,0.100000
1002.468750,0.000000,0.000000,0.100000
1002.484375,0.000000,0.000000,0.100000
1002.500000,0.000000,0.000000,0.100000
1002.515625,0.000000,0.000000,0.100000
1002.531250,0.000860,0.000860,0.100000
1002.546875,0.067199,0.067199,0.100000
1002.562500,0.225750,0.225750,0.100000
1002.578125,0.442733,0.442733,0.100000
1002.593750,0.671918,0.671918,0.100000
1002.609375,0.864473,0.864473,0.100000
1002.625000,0.979374,0.979374,0.100000
1002.640625,0.992140,0.992140,0.100000
1002.656250,0.900050,0.900050,0.100000
1002.671875,0.722726,0.722726,0.100000
1002.687500,0.497948,0.497948,0.100000
1002.703125,0.273607,0.273607,0.100000
1002.718750,0.097501,0.097501,0.100000
1002.734375,0.007152,0.007152,0.100000
1002.750000,0.000000,0.000000,0.100000
1002.765625,0.000000,0.000000,0.100000
1002.781250,0.000000,0.000000,0.100000
1002.796875,0.000000,0.000000,0.100000
1002.812500,0.000000,0.000000,0.100000
1002.828125,0.000000,0.000000,0.100000
1002.843750,0.000000,0.000000,0.100000
1002.859375,0.000000,0.000000,0.100000
1002.875000,0.000000,0.000000,0.100000
1002.890625,0.000000,0.000000,0.100000
1002.906250,0.000000,0.000000,0.100000
1002.921875,0.000000,0.000000,0.100000
1002.937500,0.000000,0.000000,0.100000
1002.953125,0.000000,0.000000,0.100000
1002.968750,0.000000,0.000000,0.100000
1002.984375,0.000000,0.000000,0.100000
1003.000000,0.000000,0.000000,0.100000
1003.015625,0.000000,0.000000,0.100000
1003.031250,0.000000,0.000000,0.100000
1003.046875,0.000000,0.000000,0.100000
1003.062500,0.000000,0.000000,0.100000
1003.078125,0.000000,0.000000,0.100000
1003.093750,0.000000,0.000000,0.100000
1003.109375,0.000000,0.000000,0.100000
1003.125000,0.000000,0.000000,0.100000
1003.140625,0.000000,0.000000,0.100000
1003.156250,0.000000,0.000000,0.100000
1003.171875,0.000000,0.000000,0.100000
1003.187500,0.000000,0.000000,0.100000
1003.203125,0.000000,0.000000,0.100000
1003.218750,0.000000,0.000000,0.100000
1003.234375,0.000000,0.000000,0.100000
1003.250000,0.000000,0.000000,0.100000
1003.265625,0.000000,0.000000,0.100000
1003.281250,0.000000,0.000000,0.100000
1003.296875,0.000000,0.000000,0.100000
1003.312500,0.000000,0.000000,0.100000
1003.328125,0.000000,0.000000,0.100000
1003.343750,0.000000,0.000000,0.100000
1003.359375,0.000000,0.000000,0.100000
1003.375000,0.001529,0.001529,0.100000
1003.390625,0.072177,0.072177,0.100000
1003.406250,0.233977,0.233977,0.100000
1003.421875,0.452456,0.452456,0.100000
1003.437500,0.681065,0.681065,0.100000
1003.453125,0.871096,0.871096,0.100000
1003.468750,0.982061,0.982061,0.100000
1003.484375,0.990319,0.990319,0.100000
1003.500000,0.894109,0.894109,0.100000
1003.515625,0.713930,0.713930,0.100000
1003.531250,0.488172,0.488172,0.100000
1003.546875,0.264933,0.264933,0.100000
1003.562500,0.091778,0.091778,0.100000
1003.578125,0.005599,0.005599,0.100000
1003.593750,0.000000,0.000000,0.100000
1003.609375,0.000000,0.000000,0.100000
1003.625000,0.000000,0.000000,0.100000
1003.640625,0.000000,0.000000,0.100000
1003.656250,0.000000,0.000000,0.100000
1003.671875,0.000000,0.000000,0.100000
1003.687500,0.000000,0.000000,0.100000
1003.703125,0.000000,0.000000,0.100000
1003.718750,0.000000,0.000000,0.100000
1003.734375,0.000000,0.000000,0.100000
1003.750000,0.000000,0.000000,0.100000
1003.765625,0.000000,0.000000,0.100000
1003.781250,0.000000,0.000000,0.100000
1003.796875,0.000000,0.000000,0.100000
1003.812500,0.000000,0.000000,0.100000
1003.828125,0.000000,0.000000,0.100000
1003.843750,0.000000,0.000000,0.100000
1003.859375,0.000000,0.000000,0.100000
1003.875000,0.000000,0.000000,0.100000
1003.890625,0.000000,0.000000,0.100000
1003.906250,0.000000,0.000000,0.100000
1003.921875,0.000000,0.000000,0.100000
1003.937500,0.000000,0.000000,0.100000
1003.953125,0.000000,0.000000,0.100000
1003.968750,0.000000,0.000000,0.100000
1003.984375,0.000000,0.000000,0.100000
1004.000000,0.000000,0.000000,0.100000
1004.015625,0.000000,0.000000,0.100000
1004.031250,0.000000,0.000000,0.100000
1004.046875,0.000000,0.000000,0.100000
1004.062500,0.000000,0.000000,0.100000
1004.078125,0.000000,0.000000,0.100000
1004.093750,0.000000,0.000000,0.100000
1004.109375,0.000000,0.000000,0.100000
1004.125000,0.000000,0.000000,0.100000
1004.140625,0.000000,0.000000,0.100000
1004.156250,0.000000,0.000000,0.100000
1004.171875,0.000000,0.000000,0.100000
1004.187500,0.000000,0.000000,0.100000
1004.203125,0.000000,0.000000,0.100000
1004.218750,0.002388,0.002388,0.100000
1004.234375,0.077319,0.077319,0.100000
1004.250000,0.242306,0.242306,0.100000
1004.265625,0.462197,0.462197,0.100000
1004.281250,0.690143,0.690143,0.100000
1004.296875,0.877577,0.877577,0.100000
1004.312500,0.984564,0.984564,0.100000
1004.328125,0.988311,0.988311,0.100000
1004.343750,0.888017,0.888017,0.100000
1004.359375,0.705053,0.705053,0.100000
1004.375000,0.478401,0.478401,0.100000
1004.390625,0.256350,0.256350,0.100000
1004.406250,0.086211,0.086211,0.100000
1004.421875,0.004234,0.004234,0.100000
1004.437500,0.000000,0.000000,0.100000
1004.453125,0.000000,0.000000,0.100000
1004.468750,0.000000,0.000000,0.100000
1004.484375,0.000000,0.000000,0.100000
1004.500000,0.000000,0.000000,0.100000
1004.515625,0.000000,0.000000,0.100000
1004.531250,0.000000,0.000000,0.100000
1004.546875,0.000000,0.000000,0.100000
1004.562500,0.000000,0.000000,0.100000
1004.578125,0.000000,0.000000,0.100000
1004.593750,0.000000,0.000000,0.100000
1004.609375,0.000000,0.000000,0.100000
1004.625000,0.000000,0.000000,0.100000
1004.640625,0.000000,0.000000,0.100000
1004.656250,0.000000,0.000000,0.100000
1004.671875,0.000000,0.000000,0.100000
1004.687500,0.000000,0.000000,0.100000
1004.703125,0.000000,0.000000,0.100000
1004.718750,0.000000,0.000000,0.100000
1004.734375,0.000000,0.000000,0.100000
1004.750000,0.000000,0.000000,0.100000
1004.765625,0.000000,0.000000,0.100000
1004.781250,0.000000,0.000000,0.100000
1004.796875,0.000000,0.000000,0.100000
1004.812500,0.000000,0.000000,0.100000
1004.828125,0.000000,0.000000,0.100000
1004.843750,0.000000,0.000000,0.100000
1004.859375,0.000000,0.000000,0.100000
1004.875000,0.000000,0.000000,0.100000
1004.890625,0.000000,0.000000,0.100000
1004.906250,0.000000,0.000000,0.100000
1004.921875,0.000000,0.000000,0.100000
1004.937500,0.000000,0.000000,0.100000
1004.953125,0.000000,0.000000,0.100000
1004.968750,0.000000,0.000000,0.100000
1004.984375,0.000000,0.000000,0.100000
1005.000000,0.000000,0.000000,0.100000
1005.015625,0.000000,0.000000,0.100000
1005.031250,0.000000,0.000000,0.100000
1005.046875,0.000000,0.000000,0.100000
1005.062500,0.003437,0.003437,0.100000
1005.078125,0.082622,0.082622,0.100000
1005.093750,0.250733,0.250733,0.100000
1005.109375,0.471953,0.471953,0.100000
1005.125000,0.699148,0.699148,0.100000
1005.140625,0.883914,0.883914,0.100000
1005.156250,0.986882,0.986882,0.100000
1005.171875,0.986116,0.986116,0.100000
1005.187500,0.881777,0.881777,0.100000
1005.203125,0.696098,0.696098,0.100000
1005.218750,0.468638,0.468638,0.100000
1005.234375,0.247859,0.247859,0.100000
1005.250000,0.080802,0.080802,0.100000
1005.265625,0.003059,0.003059,0.100000
1005.281250,0.000000,0.000000,0.100000
1005.296875,0.000000,0.000000,0.100000
1005.312500,0.000000,0.000000,0.100000
1005.328125,0.000000,0.000000,0.100000
1005.343750,0.000000,0.000000,0.100000
1005.359375,0.000000,0.000000,0.100000
1005.375000,0.000000,0.000000,0.100000
1005.390625,0.000000,0.000000,0.100000
1005.406250,0.000000,0.000000,0.100000
1005.421875,0.000000,0.000000,0.100000
1005.437500,0.000000,0.000000,0.100000
1005.453125,0.000000,0.000000,0.100000
1005.468750,0.000000,0.000000,0.100000
1005.484375,0.000000,0.000000,0.100000
1005.500000,0.000000,0.000000,0.100000
1005.515625,0.000000,0.000000,0.100000
1005.531250,0.000000,0.000000,0.100000
1005.546875,0.000000,0.000000,0.100000
1005.562500,0.000000,0.000000,0.100000
1005.578125,0.000000,0.000000,0.100000
1005.593750,0.000000,0.000000,0.100000
1005.609375,0.000000,0.000000,0.100000
1005.625000,0.000000,0.000000,0.100000
1005.640625,0.000000,0.000000,0.100000
1005.656250,0.000000,0.000000,0.100000
1005.671875,0.000000,0.000000,0.100000
1005.687500,0.000000,0.000000,0.100000
1005.703125,0.000000,0.000000,0.100000
1005.718750,0.000000,0.000000,0.100000
1005.734375,0.000000,0.000000,0.100000
1005.750000,0.000000,0.000000,0.100000
1005.765625,0.000000,0.000000,0.100000
1005.781250,0.000000,0.000000,0.100000
1005.796875,0.000000,0.000000,0.100000
1005.812500,0.000000,0.000000,0.100000
1005.828125,0.000000,0.000000,0.100000
1005.843750,0.000000,0.000000,0.100000
1005.859375,0.000000,0.000000,0.100000
1005.875000,0.000000,0.000000,0.100000
1005.890625,0.000000,0.000000,0.100000
1005.906250,0.004676,0.004676,0.100000
1005.921875,0.088085,0.088085,0.100000
1005.937500,0.259255,0.259255,0.100000
1005.953125,0.481719,0.481719,0.100000
1005.968750,0.708078,0.708078,0.100000
1005.984375,0.890103,0.890103,0.100000
1006.000000,0.989014,0.989014,0.100000
1006.015625,0.983735,0.983735,0.100000
1006.031250,0.875391,0.875391,0.100000
1006.046875,0.687067,0.687067,0.100000
1006.062500,0.458887,0.458887,0.100000
1006.078125,0.239465,0.239465,0.100000
1006.093750,0.075554,0.075554,0.100000
1006.109375,0.002075,0.002075,0.100000
1006.125000,0.000000,0.000000,0.100000
1006.140625,0.000000,0.000000,0.100000
1006.156250,0.000000,0.000000,0.100000
1006.171875,0.000000,0.000000,0.100000
1006.187500,0.000000,0.000000,0.100000
1006.203125,0.000000,0.000000,0.100000
1006.218750,0.000000,0.000000,0.100000
1006.234375,0.000000,0.000000,0.100000
1006.250000,0.000000,0.000000,0.100000
1006.265625,0.000000,0.000000,0.100000
1006.281250,0.000000,0.000000,0.100000
1006.296875,0.000000,0.000000,0.100000
1006.312500,0.000000,0.000000,0.100000
1006.328125,0.000000,0.000000,0.100000
1006.343750,0.000000,0.000000,0.100000
1006.359375,0.000000,0.000000,0.100000
1006.375000,0.000000,0.000000,0.100000
1006.390625,0.000000,0.000000,0.100000
1006.406250,0.000000,0.000000,0.100000
1006.421875,0.000000,0.000000,0.100000
1006.437500,0.000000,0.000000,0.100000
1006.453125,0.000000,0.000000,0.100000
1006.468750,0.000000,0.000000,0.100000
1006.484375,0.000000,0.000000,0.100000
1006.500000,0.000000,0.000000,0.100000
1006.515625,0.000000,0.000000,0.100000
1006.531250,0.000000,0.000000,0.100000
1006.546875,0.000000,0.000000,0.100000
1006.562500,0.000000,0.000000,0.100000
1006.578125,0.000000,0.000000,0.100000
1006.593750,0.000000,0.000000,0.100000
1006.609375,0.000000,0.000000,0.100000
1006.625000,0.000000,0.000000,0.100000
1006.640625,0.000000,0.000000,0.100000
1006.656250,0.000000,0.000000,0.100000
1006.671875,0.000000,0.000000,0.100000
1006.687500,0.000000,0.000000,0.100000
1006.703125,0.000000,0.000000,0.100000
1006.718750,0.000000,0.000000,0.100000
1006.734375,0.000000,0.000000,0.100000
1006.750000,0.006105,0.006105,0.100000
1006.765625,0.093705,0.093705,0.100000
1006.781250,0.267870,0.267870,0.100000
1006.796875,0.491492,0.491492,0.100000
1006.812500,0.716927,0.716927,0.100000
1006.828125,0.896144,0.896144,0.100000
1006.843750,0.990958,0.990958,0.100000
1006.859375,0.981169,0.981169,0.100000
1006.875000,0.868862,0.868862,0.100000
1006.890625,0.677965,0.677965,0.100000
1006.906250,0.449151,0.449151,0.100000
1006.921875,0.231171,0.231171,0.100000
1006.937500,0.070468,0.070468,0.100000
1006.953125,0.001280,0.001280,0.100000
1006.968750,0.000000,0.000000,0.100000
1006.984375,0.000000,0.000000,0.100000
1007.000000,0.000000,0.000000,0.100000
1007.015625,0.000000,0.000000,0.100000
1007.031250,0.000000,0.000000,0.100000
1007.046875,0.000000,0.000000,0.100000
1007.062500,0.000000,0.000000,0.100000
1007.078125,0.000000,0.000000,0.100000
1007.093750,0.000000,0.000000,0.100000
1007.109375,0.000000,0.000000,0.100000
1007.125000,0.000000,0.000000,0.100000
1007.140625,0.000000,0.000000,0.100000
1007.156250,0.000000,0.000000,0.100000
1007.171875,0.000000,0.000000,0.100000
1007.187500,0.000000,0.000000,0.100000
1007.203125,0.000000,0.000000,0.100000
1007.218750,0.000000,0.000000,0.100000
1007.234375,0.000000,0.000000,0.100000
1007.250000,0.000000,0.000000,0.100000
1007.265625,0.000000,0.000000,0.100000
1007.281250,0.000000,0.000000,0.100000
1007.296875,0.000000,0.000000,0.100000
1007.312500,0.000000,0.000000,0.100000
1007.328125,0.000000,0.000000,0.100000
1007.343750,0.000000,0.000000,0.100000
1007.359375,0.000000,0.000000,0.100000
1007.375000,0.000000,0.000000,0.100000
1007.390625,0.000000,0.000000,0.100000
1007.406250,0.000000,0.000000,0.100000
1007.421875,0.000000,0.000000,0.100000
1007.437500,0.000000,0.000000,0.100000
1007.453125,0.000000,0.000000,0.100000
1007.468750,0.000000,0.000000,0.100000
1007.484375,0.000000,0.000000,0.100000
1007.500000,0.000000,0.000000,0.100000
1007.515625,0.000000,0.000000,0.100000
1007.531250,0.000000,0.000000,0.100000
1007.546875,0.000000,0.000000,0.100000
1007.562500,0.000000,0.000000,0.100000
1007.578125,0.000000,0.000000,0.100000
1007.593750,0.007723,0.007723,0.100000
1007.609375,0.099480,0.099480,0.100000
1007.625000,0.276573,0.276573,0.100000
1007.640625,0.501269,0.501269,0.100000
1007.656250,0.725694,0.725694,0.100000
1007.671875,0.902033,0.902033,0.100000
1007.687500,0.992715,0.992715,0.100000
1007.703125,0.978419,0.978419,0.100000
1007.718750,0.862192,0.862192,0.100000
1007.734375,0.668795,0.668795,0.100000
1007.750000,0.439435,0.439435,0.100000
1007.765625,0.222979,0.222979,0.100000
1007.781250,0.065545,0.065545,0.100000
1007.796875,0.000676,0.000676,0.100000
1007.812500,0.000000,0.000000,0.100000
1007.828125,0.000000,0.000000,0.100000
1007.843750,0.000000,0.000000,0.100000
1007.859375,0.000000,0.000000,0.100000
1007.875000,0.000000,0.000000,0.100000
1007.890625,0.000000,0.000000,0.100000
1007.906250,0.000000,0.000000,0.100000
1007.921875,0.000000,0.000000,0.100000
1007.937500,0.000000,0.000000,0.100000
1007.953125,0.000000,0.000000,0.100000
1007.968750,0.000000,0.000000,0.100000
1007.984375,0.000000,0.000000,0.100000
1008.000000,0.000000,0.000000,0.100000
1008.015625,0.000000,0.000000,0.100000
1008.031250,0.000000,0.000000,0.100000
1008.046875,0.000000,0.000000,0.100000
1008.062500,0.000000,0.000000,0.100000
1008.078125,0.000000,0.000000,0.100000
1008.093750,0.000000,0.000000,0.100000
1008.109375,0.000000,0.000000,0.100000
1008.125000,0.000000,0.000000,0.100000
1008.140625,0.000000,0.000000,0.100000
1008.156250,0.000000,0.000000,0.100000
1008.171875,0.000000,0.000000,0.100000
1008.187500,0.000000,0.000000,0.100000
1008.203125,0.000000,0.000000,0.100000
1008.218750,0.000000,0.000000,0.100000
1008.234375,0.000000,0.000000,0.100000
1008.250000,0.000000,0.000000,0.100000
1008.265625,0.000000,0.000000,0.100000
1008.281250,0.000000,0.000000,0.100000
1008.296875,0.000000,0.000000,0.100000
1008.312500,0.000000,0.000000,0.100000
1008.328125,0.000000,0.000000,0.100000
1008.343750,0.000000,0.000000,0.100000
1008.359375,0.000000,0.000000,0.100000
1008.375000,0.000000,0.000000,0.100000
1008.390625,0.000000,0.000000,0.100000
1008.406250,0.000000,0.000000,0.100000
1008.421875,0.000000,0.000000,0.100000
1008.437500,0.009528,0.009528,0.100000
1008.453125,0.105409,0.105409,0.100000
1008.468750,0.285362,0.285362,0.100000
1008.484375,0.511045,0.511045,0.100000
1008.500000,0.734375,0.734375,0.100000
1008.515625,0.907769,0.907769,0.100000
1008.531250,0.994284,0.994284,0.100000
1008.546875,0.975487,0.975487,0.100000
1008.562500,0.855383,0.855383,0.100000
1008.578125,0.659561,0.659561,0.100000
1008.593750,0.429743,0.429743,0.100000
1008.609375,0.214894,0.214894,0.100000
1008.625000,0.060790,0.060790,0.100000
1008.640625,0.000263,0.000263,0.100000
1008.656250,0.000000,0.000000,0.100000
1008.671875,0.000000,0.000000,0.100000
1008.687500,0.000000,0.000000,0.100000
1008.703125,0.000000,0.000000,0.100000
1008.718750,0.000000,0.000000,0.100000
1008.734375,0.000000,0.000000,0.100000
1008.750000,0.000000,0.000000,0.100000
1008.765625,0.000000,0.000000,0.100000
1008.781250,0.000000,0.000000,0.100000
1008.796875,0.000000,0.000000,0.100000
1008.812500,0.000000,0.000000,0.100000
1008.828125,0.000000,0.000000,0.100000
1008.843750,0.000000,0.000000,0.100000
1008.859375,0.000000,0.000000,0.100000
1008.875000,0.000000,0.000000,0.100000
1008.890625,0.000000,0.000000,0.100000
1008.906250,0.000000,0.000000,0.100000
1008.921875,0.000000,0.000000,0.100000
1008.937500,0.000000,0.000000,0.100000
1008.953125,0.000000,0.000000,0.100000
1008.968750,0.000000,0.000000,0.100000
1008.984375,0.000000,0.000000,0.100000
1009.000000,0.000000,0.000000,0.100000
1009.015625,0.000000,0.000000,0.100000
1009.031250,0.000000,0.000000,0.100000
1009.046875,0.000000,0.000000,0.100000
1009.062500,0.000000,0.000000,0.100000
1009.078125,0.000000,0.000000,0.100000
1009.093750,0.000000,0.000000,0.100000
1009.109375,0.000000,0.000000,0.100000
1009.125000,0.000000,0.000000,0.100000
1009.140625,0.000000,0.000000,0.100000
1009.156250,0.000000,0.000000,0.100000
1009.171875,0.000000,0.000000,0.100000
1009.187500,0.000000,0.000000,0.100000
1009.203125,0.000000,0.000000,0.100000
1009.218750,0.000000,0.000000,0.100000
1009.234375,0.000000,0.000000,0.100000
1009.250000,0.000000,0.000000,0.100000
1009.265625,0.000000,0.000000,0.100000
1009.281250,0.011522,0.011522,0.100000
1009.296875,0.111489,0.111489,0.100000
1009.312500,0.294232,0.294232,0.100000
1009.328125,0.520816,0.520816,0.100000
1009.343750,0.742966,0.742966,0.100000
1009.359375,0.913348,0.913348,0.100000
1009.375000,0.995663,0.995663,0.100000
1009.390625,0.972372,0.972372,0.100000
1009.406250,0.848438,0.848438,0.100000
1009.421875,0.650265,0.650265,0.100000
1009.437500,0.420077,0.420077,0.100000
1009.453125,0.206917,0.206917,0.100000
1009.468750,0.056202,0.056202,0.100000
1009.484375,0.000042,0.000042,0.100000
1009.500000,0.000000,0.000000,0.100000
1009.515625,0.000000,0.000000,0.100000
1009.531250,0.000000,0.000000,0.100000
1009.546875,0.000000,0.000000,0.100000
1009.562500,0.000000,0.000000,0.100000
1009.578125,0.000000,0.000000,0.100000
1009.593750,0.000000,0.000000,0.100000
1009.609375,0.000000,0.000000,0.100000
1009.625000,0.000000,0.000000,0.100000
1009.640625,0.000000,0.000000,0.100000
1009.656250,0.000000,0.000000,0.100000
1009.671875,0.000000,0.000000,0.100000
1009.687500,0.000000,0.000000,0.100000
1009.703125,0.000000,0.000000,0.100000
1009.718750,0.000000,0.000000,0.100000
1009.734375,0.000000,0.000000,0.100000
1009.750000,0.000000,0.000000,0.100000
1009.765625,0.000000,0.000000,0.100000
1009.781250,0.000000,0.000000,0.100000
1009.796875,0.000000,0.000000,0.100000
1009.812500,0.000000,0.000000,0.100000
1009.828125,0.000000,0.000000,0.100000
1009.843750,0.000000,0.000000,0.100000
1009.859375,0.000000,0.000000,0.100000
1009.875000,0.000000,0.000000,0.100000
1009.890625,0.000000,0.000000,0.100000
1009.906250,0.000000,0.000000,0.100000
1009.921875,0.000000,0.000000,0.100000
1009.937500,0.000000,0.000000,0.100000
1009.953125,0.000000,0.000000,0.100000
1009.968750,0.000000,0.000000,0.100000
1009.984375,0.000000,0.000000,0.100000
1010.000000,0.000000,0.000000,0.100000
1010.015625,0.000000,0.000000,0.100000
1010.031250,0.000000,0.000000,0.100000
1010.046875,0.000000,0.000000,0.100000
1010.062500,0.000000,0.000000,0.100000
1010.078125,0.000000,0.000000,0.100000
1010.093750,0.000000,0.000000,0.100000
1010.109375,0.000000,0.000000,0.100000
1010.125000,0.013702,0.013702,0.100000
1010.140625,0.117717,0.117717,0.100000
1010.156250,0.303182,0.303182,0.100000
1010.171875,0.530580,0.530580,0.100000
1010.187500,0.751464,0.751464,0.100000
1010.203125,0.918770,0.918770,0.100000
1010.218750,0.996853,0.996853,0.100000
1010.234375,0.969077,0.969077,0.100000
1010.250000,0.841360,0.841360,0.100000
1010.265625,0.640912,0.640912,0.100000
1010.281250,0.410442,0.410442,0.100000
1010.296875,0.199052,0.199052,0.100000
1010.312500,0.051783,0.051783,0.100000
1010.328125,0.000000,0.000000,0.100000
1010.343750,0.000000,0.000000,0.100000
1010.359375,0.000000,0.000000,0.100000
1010.375000,0.000000,0.000000,0.100000
1010.390625,0.000000,0.000000,0.100000
1010.406250,0.000000,0.000000,0.100000
1010.421875,0.000000,0.000000,0.100000
1010.437500,0.000000,0.000000,0.100000
1010.453125,0.000000,0.000000,0.100000
1010.468750,0.000000,0.000000,0.100000
1010.484375,0.000000,0.000000,0.100000
1010.500000,0.000000,0.000000,0.100000
1010.515625,0.000000,0.000000,0.100000
1010.531250,0.000000,0.000000,0.100000
1010.546875,0.000000,0.000000,0.100000
1010.562500,0.000000,0.000000,0.100000
1010.578125,0.000000,0.000000,0.100000
1010.593750,0.000000,0.000000,0.100000
1010.609375,0.000000,0.000000,0.100000
1010.625000,0.000000,0.000000,0.100000
1010.640625,0.000000,0.000000,0.100000
1010.656250,0.000000,0.000000,0.100000
1010.671875,0.000000,0.000000,0.100000
1010.687500,0.000000,0.000000,0.100000
1010.703125,0.000000,0.000000,0.100000
1010.718750,0.000000,0.000000,0.100000
1010.734375,0.000000,0.000000,0.100000
1010.750000,0.000000,0.000000,0.100000
1010.765625,0.000000,0.000000,0.100000
1010.781250,0.000000,0.000000,0.100000
1010.796875,0.000000,0.000000,0.100000
1010.812500,0.000000,0.000000,0.100000
1010.828125,0.000000,0.000000,0.100000
1010.843750,0.000000,0.000000,0.100000
1010.859375,0.000000,0.000000,0.100000
1010.875000,0.000000,0.000000,0.100000
1010.890625,0.000000,0.000000,0.100000
1010.906250,0.000000,0.000000,0.100000
1010.921875,0.000000,0.000000,0.100000
1010.937500,0.000000,0.000000,0.100000
1010.953125,0.000000,0.000000,0.100000
1010.968750,0.016067,0.016067,0.100000
1010.984375,0.124091,0.124091,0.100000
1011.000000,0.312206,0.312206,0.100000
1011.015625,0.540332,0.540332,0.100000
1011.031250,0.759865,0.759865,0.100000
1011.046875,0.924031,0.924031,0.100000
1011.062500,0.997853,0.997853,0.100000
1011.078125,0.965603,0.965603,0.100000
1011.093750,0.834151,0.834151,0.100000
1011.109375,0.631505,0.631505,0.100000
1011.125000,0.400841,0.400841,0.100000
1011.140625,0.191303,0.191303,0.100000
1011.156250,0.047536,0.047536,0.100000
1011.171875,0.000000,0.000000,0.100000
1011.187500,0.000000,0.000000,0.100000
1011.203125,0.000000,0.000000,0.100000
1011.218750,0.000000,0.000000,0.100000
1011.234375,0.000000,0.000000,0.100000
1011.250000,0.000000,0.000000,0.100000
1011.265625,0.000000,0.000000,0.100000
1011.281250,0.000000,0.000000,0.100000
1011.296875,0.000000,0.000000,0.100000
1011.312500,0.000000,0.000000,0.100000
1011.328125,0.000000,0.000000,0.100000
1011.343750,0.000000,0.000000,0.100000
1011.359375,0.000000,0.000000,0.100000
1011.375000,0.000000,0.000000,0.100000
1011.390625,0.000000,0.000000,0.100000
1011.406250,0.000000,0.000000,0.100000
1011.421875,0.000000,0.000000,0.100000
1011.437500,0.000000,0.000000,0.100000
1011.453125,0.000000,0.000000,0.100000
1011.468750,0.000000,0.000000,0.100000
1011.484375,0.000000,0.000000,0.100000
1011.500000,0.000000,0.000000,0.100000
1011.515625,0.000000,0.000000,0.100000
1011.531250,0.000000,0.000000,0.100000
1011.546875,0.000000,0.000000,0.100000
1011.562500,0.000000,0.000000,0.100000
1011.578125,0.000000,0.000000,0.100000
1011.593750,0.000000,0.000000,0.100000
1011.609375,0.000000,0.000000,0.100000
1011.625000,0.000000,0.000000,0.100000
1011.640625,0.000000,0.000000,0.100000
1011.656250,0.000000,0.000000,0.100000
1011.671875,0.000000,0.000000,0.100000
1011.687500,0.000000,0.000000,0.100000
1011.703125,0.000000,0.000000,0.100000
1011.718750,0.000000,0.000000,0.100000
1011.734375,0.000000,0.000000,0.100000
1011.750000,0.000000,0.000000,0.100000
1011.765625,0.000000,0.000000,0.100000
1011.781250,0.000000,0.000000,0.100000
1011.796875,0.000000,0.000000,0.100000
1011.812500,0.018618,0.018618,0.100000
1011.828125,0.130609,0.130609,0.100000
1011.843750,0.321303,0.321303,0.100000
1011.859375,0.550069,0.550069,0.100000
1011.875000,0.768168,0.768168,0.100000
1011.890625,0.929131,0.929131,0.100000
1011.906250,0.998663,0.998663,0.100000
1011.921875,0.961951,0.961951,0.100000
1011.937500,0.826815,0.826815,0.100000
1011.953125,0.622048,0.622048,0.100000
1011.968750,0.391277,0.391277,0.100000
1011.984375,0.183671,0.183671,0.100000
1012.000000,0.043462,0.043462,0.100000
1012.015625,0.000000,0.000000,0.100000
1012.031250,0.000000,0.000000,0.100000
1012.046875,0.000000,0.000000,0.100000
1012.062500,0.000000,0.000000,0.100000
1012.078125,0.000000,0.000000,0.100000
1012.093750,0.000000,0.000000,0.100000
1012.109375,0.000000,0.000000,0.100000
1012.125000,0.000000,0.000000,0.100000
1012.140625,0.000000,0.000000,0.100000
1012.156250,0.000000,0.000000,0.100000
1012.171875,0.000000,0.000000,0.100000
1012.187500,0.000000,0.000000,0.100000
1012.203125,0.000000,0.000000,0.100000
1012.218750,0.000000,0.000000,0.100000
1012.234375,0.000000,0.000000,0.100000
1012.250000,0.000000,0.000000,0.100000
1012.265625,0.000000,0.000000,0.100000
1012.281250,0.000000,0.000000,0.100000
1012.296875,0.000000,0.000000,0.100000
1012.312500,0.000000,0.000000,0.100000
1012.328125,0.000000,0.000000,0.100000
1012.343750,0.000000,0.000000,0.100000
1012.359375,0.000000,0.000000,0.100000
1012.375000,0.000000,0.000000,0.100000
1012.390625,0.000000,0.000000,0.100000
1012.406250,0.000000,0.000000,0.100000
1012.421875,0.000000,0.000000,0.100000
1012.437500,0.000000,0.000000,0.100000
1012.453125,0.000000,0.000000,0.100000
1012.468750,0.000000,0.000000,0.100000
1012.484375,0.000000,0.000000,0.100000
1012.500000,0.000000,0.000000,0.100000
1012.515625,0.000000,0.000000,0.100000
1012.531250,0.000000,0.000000,0.100000
1012.546875,0.000000,0.000000,0.100000
1012.562500,0.000000,0.000000,0.100000
1012.578125,0.000000,0.000000,0.100000
1012.593750,0.000000,0.000000,0.100000
1012.609375,0.000000,0.000000,0.100000
1012.625000,0.000000,0.000000,0.100000
1012.640625,0.000000,0.000000,0.100000
1012.656250,0.021353,0.021353,0.100000
1012.671875,0.137269,0.137269,0.100000
1012.687500,0.330467,0.330467,0.100000
1012.703125,0.559787,0.559787,0.100000
1012.718750,0.776368,0.776368,0.100000
1012.734375,0.934066,0.934066,0.100000
1012.750000,0.999282,0.999282,0.100000
1012.765625,0.958121,0.958121,0.100000
1012.781250,0.819353,0.819353,0.100000
1012.796875,0.612544,0.612544,0.100000
1012.812500,0.381756,0.381756,0.100000
1012.828125,0.176161,0.176161,0.100000
1012.843750,0.039563,0.039563,0.100000
1012.859375,0.000000,0.000000,0.100000
1012.875000,0.000000,0.000000,0.100000
1012.890625,0.000000,0.000000,0.100000
1012.906250,0.000000,0.000000,0.100000
1012.921875,0.000000,0.000000,0.100000
1012.937500,0.000000,0.000000,0.100000
1012.953125,0.000000,0.000000,0.100000
1012.968750,0.000000,0.000000,0.100000
1012.984375,0.000000,0.000000,0.100000
1013.000000,0.000000,0.000000,0.100000
1013.015625,0.000000,0.000000,0.100000
1013.031250,0.000000,0.000000,0.100000
1013.046875,0.000000,0.000000,0.100000
1013.062500,0.000000,0.000000,0.100000
1013.078125,0.000000,0.000000,0.100000
1013.093750,0.000000,0.000000,0.100000
1013.109375,0.000000,0.000000,0.100000
1013.125000,0.000000,0.000000,0.100000
1013.140625,0.000000,0.000000,0.100000
1013.156250,0.000000,0.000000,0.100000
1013.171875,0.000000,0.000000,0.100000
1013.187500,0.000000,0.000000,0.100000
1013.203125,0.000000,0.000000,0.100000
1013.218750,0.000000,0.000000,0.100000
1013.234375,0.000000,0.000000,0.100000
1013.250000,0.000000,0.000000,0.100000
1013.265625,0.000000,0.000000,0.100000
1013.281250,0.000000,0.000000,0.100000
1013.296875,0.000000,0.000000,0.100000
1013.312500,0.000000,0.000000,0.100000
1013.328125,0.000000,0.000000,0.100000
1013.343750,0.000000,0.000000,0.100000
1013.359375,0.000000,0.000000,0.100000
1013.375000,0.000000,0.000000,0.100000
1013.390625,0.000000,0.000000,0.100000
1013.406250,0.000000,0.000000,0.100000
1013.421875,0.000000,0.000000,0.100000
1013.437500,0.000000,0.000000,0.100000
1013.453125,0.000000,0.000000,0.100000
1013.468750,0.000000,0.000000,0.100000
1013.484375,0.000000,0.000000,0.100000
1013.500000,0.024271,0.024271,0.100000
1013.515625,0.144067,0.144067,0.100000
1013.531250,0.339697,0.339697,0.100000
1013.546875,0.569481,0.569481,0.100000
1013.562500,0.784462,0.784462,0.100000
1013.578125,0.938835,0.938835,0.100000
1013.593750,0.999710,0.999710,0.100000
1013.609375,0.954117,0.954117,0.100000
1013.625000,0.811770,0.811770,0.100000
1013.640625,0.602997,0.602997,0.100000
1013.656250,0.372279,0.372279,0.100000
1013.671875,0.168774,0.168774,0.100000
1013.687500,0.035840,0.035840,0.100000
1013.703125,0.000000,0.000000,0.100000
1013.718750,0.000000,0.000000,0.100000
1013.734375,0.000000,0.000000,0.100000
1013.750000,0.000000,0.000000,0.100000
1013.765625,0.000000,0.000000,0.100000
1013.781250,0.000000,0.000000,0.100000
1013.796875,0.000000,0.000000,0.100000
1013.812500,0.000000,0.000000,0.100000
1013.828125,0.000000,0.000000,0.100000
1013.843750,0.000000,0.000000,0.100000
1013.859375,0.000000,0.000000,0.100000
1013.875000,0.000000,0.000000,0.100000
1013.890625,0.000000,0.000000,0.100000
1013.906250,0.000000,0.000000,0.100000
1013.921875,0.000000,0.000000,0.100000
1013.937500,0.000000,0.000000,0.100000
1013.953125,0.000000,0.000000,0.100000
1013.968750,0.000000,0.000000,0.100000
1013.984375,0.000000,0.000000,0.100000
1014.000000,0.000000,0.000000,0.100000
1014.015625,0.000000,0.000000,0.100000
1014.031250,0.000000,0.000000,0.100000
1014.046875,0.000000,0.000000,0.100000
1014.062500,0.000000,0.000000,0.100000
1014.078125,0.000000,0.000000,0.100000
1014.093750,0.000000,0.000000,0.100000
1014.109375,0.000000,0.000000,0.100000
1014.125000,0.000000,0.000000,0.100000
1014.140625,0.000000,0.000000,0.100000
1014.156250,0.000000,0.000000,0.100000
1014.171875,0.000000,0.000000,0.100000
1014.187500,0.000000,0.000000,0.100000
1014.203125,0.000000,0.000000,0.100000
1014.218750,0.000000,0.000000,0.100000
1014.234375,0.000000,0.000000,0.100000
1014.250000,0.000000,0.000000,0.100000
1014.265625,0.000000,0.000000,0.100000
1014.281250,0.000000,0.000000,0.100000
1014.296875,0.000000,0.000000,0.100000
1014.312500,0.000000,0.000000,0.100000
1014.328125,0.000000,0.000000,0.100000
1014.343750,0.027371,0.027371,0.100000
1014.359375,0.151001,0.151001,0.100000
1014.375000,0.348988,0.348988,0.100000
1014.390625,0.579149,0.579149,0.100000
1014.406250,0.792448,0.792448,0.100000
1014.421875,0.943437,0.943437,0.100000
1014.437500,0.999948,0.999948,0.100000
1014.453125,0.949940,0.949940,0.100000
1014.468750,0.804067,0.804067,0.100000
1014.484375,0.593411,0.593411,0.100000
1014.500000,0.362852,0.362852,0.100000
1014.515625,0.161514,0.161514,0.100000
1014.531250,0.032294,0.032294,0.100000
1014.546875,0.000000,0.000000,0.100000
1014.562500,0.000000,0.000000,0.100000
1014.578125,0.000000,0.000000,0.100000
1014.593750,0.000000,0.000000,0.100000
1014.609375,0.000000,0.000000,0.100000
1014.625000,0.000000,0.000000,0.100000
1014.640625,0.000000,0.000000,0.100000
1014.656250,0.000000,0.000000,0.100000
1014.671875,0.000000,0.000000,0.100000
1014.687500,0.000000,0.000000,0.100000
1014.703125,0.000000,0.000000,0.100000
1014.718750,0.000000,0.000000,0.100000
1014.734375,0.000000,0.000000,0.100000
1014.750000,0.000000,0.000000,0.100000
1014.765625,0.000000,0.000000,0.100000
1014.781250,0.000000,0.000000,0.100000
1014.796875,0.000000,0.000000,0.100000
1014.812500,0.000000,0.000000,0.100000
1014.828125,0.000000,0.000000,0.100000
1014.843750,0.000000,0.000000,0.100000
1014.859375,0.000000,0.000000,0.100000
1014.875000,0.000000,0.000000,0.100000
1014.890625,0.000000,0.000000,0.100000
1014.906250,0.000000,0.000000,0.100000
1014.921875,0.000000,0.000000,0.100000
1014.937500,0.000000,0.000000,0.100000
1014.953125,0.000000,0.000000,0.100000
1014.968750,0.000000,0.000000,0.100000
1014.984375,0.000000,0.000000,0.100000
1015.000000,0.000000,0.000000,0.100000
1015.015625,0.000000,0.000000,0.100000
1015.031250,0.000000,0.000000,0.100000
1015.046875,0.000000,0.000000,0.100000
1015.062500,0.000000,0.000000,0.100000
1015.078125,0.000000,0.000000,0.100000
1015.093750,0.000000,0.000000,0.100000
1015.109375,0.000000,0.000000,0.100000
1015.125000,0.000000,0.000000,0.100000
1015.140625,0.000000,0.000000,0.100000
1015.156250,0.000000,0.000000,0.100000
1015.171875,0.000000,0.000000,0.100000
1015.187500,0.030652,0.030652,0.100000
1015.203125,0.158068,0.158068,0.100000
1015.218750,0.358336,0.358336,0.100000
1015.234375,0.588787,0.588787,0.100000
1015.250000,0.800321,0.800321,0.100000
1015.265625,0.947869,0.947869,0.100000
1015.281250,0.999994,0.999994,0.100000
1015.296875,0.945590,0.945590,0.100000
1015.312500,0.796249,0.796249,0.100000
1015.328125,0.583789,0.583789,0.100000
1015.343750,0.353477,0.353477,0.100000
1015.359375,0.154383,0.154383,0.100000
1015.375000,0.028927,0.028927,0.100000
1015.390625,0.000000,0.000000,0.100000
1015.406250,0.000000,0.000000,0.100000
1015.421875,0.000000,0.000000,0.100000
1015.437500,0.000000,0.000000,0.100000
1015.453125,0.000000,0.000000,0.100000
1015.468750,0.000000,0.000000,0.100000
1015.484375,0.000000,0.000000,0.100000
1015.500000,0.000000,0.000000,0.100000
1015.515625,0.000000,0.000000,0.100000
1015.531250,0.000000,0.000000,0.100000
1015.546875,0.000000,0.000000,0.100000
1015.562500,0.000000,0.000000,0.100000
1015.578125,0.000000,0.000000,0.100000
1015.593750,0.000000,0.000000,0.100000
1015.609375,0.000000,0.000000,0.100000
1015.625000,0.000000,0.000000,0.100000
1015.640625,0.000000,0.000000,0.100000
1015.656250,0.000000,0.000000,0.100000
1015.671875,0.000000,0.000000,0.100000
1015.687500,0.000000,0.000000,0.100000
1015.703125,0.000000,0.000000,0.100000
1015.718750,0.000000,0.000000,0.100000
1015.734375,0.000000,0.000000,0.100000
1015.750000,0.000000,0.000000,0.100000
1015.765625,0.000000,0.000000,0.100000
1015.781250,0.000000,0.000000,0.100000
1015.796875,0.000000,0.000000,0.100000
1015.812500,0.000000,0.000000,0.100000
1015.828125,0.000000,0.000000,0.100000
1015.843750,0.000000,0.000000,0.100000
1015.859375,0.000000,0.000000,0.100000
1015.875000,0.000000,0.000000,0.100000
1015.890625,0.000000,0.000000,0.100000
1015.906250,0.000000,0.000000,0.100000
1015.921875,0.000000,0.000000,0.100000
1015.937500,0.000000,0.000000,0.100000
1015.953125,0.000000,0.000000,0.100000
1015.968750,0.000000,0.000000,0.100000
1015.984375,0.000000,0.000000,0.100000
1016.000000,0.000000,0.000000,0.100000
1016.015625,0.000000,0.000000,0.100000
1016.031250,0.034112,0.034112,0.100000
1016.046875,0.165266,0.165266,0.100000
1016.062500,0.367739,0.367739,0.100000
1016.078125,0.598391,0.598391,0.100000
1016.093750,0.808080,0.808080,0.100000
1016.109375,0.952130,0.952130,0.100000
1016.125000,0.999848,0.999848,0.100000
1016.140625,0.941069,0.941069,0.100000
1016.156250,0.788316,0.788316,0.100000
1016.171875,0.574135,0.574135,0.100000
1016.187500,0.344158,0.344158,0.100000
1016.203125,0.147385,0.147385,0.100000
1016.218750,0.025740,0.025740,0.100000
1016.234375,0.000000,0.000000,0.100000
1016.250000,0.000000,0.000000,0.100000
1016.265625,0.000000,0.000000,0.100000
1016.281250,0.000000,0.000000,0.100000
1016.296875,0.000000,0.000000,0.100000
1016.312500,0.000000,0.000000,0.100000
1016.328125,0.000000,0.000000,0.100000
1016.343750,0.000000,0.000000,0.100000
1016.359375,0.000000,0.000000,0.100000
1016.375000,0.000000,0.000000,0.100000
1016.390625,0.000000,0.000000,0.100000
1016.406250,0.000000,0.000000,0.100000
1016.421875,0.000000,0.000000,0.100000
1016.437500,0.000000,0.000000,0.100000
1016.453125,0.000000,0.000000,0.100000
1016.468750,0.000000,0.000000,0.100000
1016.484375,0.000000,0.000000,0.100000
1016.500000,0.000000,0.000000,0.100000
1016.515625,0.000000,0.000000,0.100000
1016.531250,0.000000,0.000000,0.100000
1016.546875,0.000000,0.000000,0.100000
1016.562500,0.000000,0.000000,0.100000
1016.578125,0.000000,0.000000,0.100000
1016.593750,0.000000,0.000000,0.100000
1016.609375,0.000000,0.000000,0.100000
1016.625000,0.000000,0.000000,0.100000
1016.640625,0.000000,0.000000,0.100000
1016.656250,0.000000,0.000000,0.100000
1016.671875,0.000000,0.000000,0.100000
1016.687500,0.000000,0.000000,0.100000
1016.703125,0.000000,0.000000,0.100000
1016.718750,0.000000,0.000000,0.100000
1016.734375,0.000000,0.000000,0.100000
1016.750000,0.000000,0.000000,0.100000
1016.765625,0.000000,0.000000,0.100000
1016.781250,0.000000,0.000000,0.100000
1016.796875,0.000000,0.000000,0.100000
1016.812500,0.000000,0.000000,0.100000
1016.828125,0.000000,0.000000,0.100000
1016.843750,0.000000,0.000000,0.100000
1016.859375,0.000000,0.000000,0.100000
1016.875000,0.037750,0.037750,0.100000
1016.890625,0.172593,0.172593,0.100000
1016.906250,0.377192,0.377192,0.100000
1016.921875,0.607958,0.607958,0.100000
1016.937500,0.815721,0.815721,0.100000
1016.953125,0.956217,0.956217,0.100000
1016.968750,0.999512,0.999512,0.100000
1016.984375,0.936381,0.936381,0.100000
1017.000000,0.780274,0.780274,0.100000
1017.015625,0.564452,0.564452,0.100000
1017.031250,0.334898,0.334898,0.100000
1017.046875,0.140521,0.140521,0.100000
1017.062500,0.022734,0.022734,0.100000
1017.078125,0.000000,0.000000,0.100000
1017.093750,0.000000,0.000000,0.100000
1017.109375,0.000000,0.000000,0.100000
1017.125000,0.000000,0.000000,0.100000
1017.140625,0.000000,0.000000,0.100000
1017.156250,0.000000,0.000000,0.100000
1017.171875,0.000000,0.000000,0.100000
1017.187500,0.000000,0.000000,0.100000
1017.203125,0.000000,0.000000,0.100000
1017.218750,0.000000,0.000000,0.100000
1017.234375,0.000000,0.000000,0.100000
1017.250000,0.000000,0.000000,0.100000
1017.265625,0.000000,0.000000,0.100000
1017.281250,0.000000,0.000000,0.100000
1017.296875,0.000000,0.000000,0.100000
1017.312500,0.000000,0.000000,0.100000
1017.328125,0.000000,0.000000,0.100000
1017.343750,0.000000,0.000000,0.100000
1017.359375,0.000000,0.000000,0.100000
1017.375000,0.000000,0.000000,0.100000
1017.390625,0.000000,0.000000,0.100000
1017.406250,0.000000,0.000000,0.100000
1017.421875,0.000000,0.000000,0.100000
1017.437500,0.000000,0.000000,0.100000
1017.453125,0.000000,0.000000,0.100000
1017.468750,0.000000,0.000000,0.100000
1017.484375,0.000000,0.000000,0.100000
1017.500000,0.000000,0.000000,0.100000
1017.515625,0.000000,0.000000,0.100000
1017.531250,0.000000,0.000000,0.100000
1017.546875,0.000000,0.000000,0.100000
1017.562500,0.000000,0.000000,0.100000
1017.578125,0.000000,0.000000,0.100000
1017.593750,0.000000,0.000000,0.100000
1017.609375,0.000000,0.000000,0.100000
1017.625000,0.000000,0.000000,0.100000
1017.640625,0.000000,0.000000,0.100000
1017.656250,0.000000,0.000000,0.100000
1017.671875,0.000000,0.000000,0.100000
1017.687500,0.000000,0.000000,0.100000
1017.703125,0.000000,0.000000,0.100000
1017.718750,0.041565,0.041565,0.100000
1017.734375,0.180044,0.180044,0.100000
1017.750000,0.386693,0.386693,0.100000
1017.765625,0.617483,0.617483,0.100000
1017.781250,0.823242,0.823242,0.100000
1017.796875,0.960131,0.960131,0.100000
1017.812500,0.998985,0.998985,0.100000
1017.828125,0.931525,0.931525,0.100000
1017.843750,0.772125,0.772125,0.100000
1017.859375,0.554745,0.554745,0.100000
1017.875000,0.325702,0.325702,0.100000
1017.890625,0.133795,0.133795,0.100000
1017.906250,0.019911,0.019911,0.100000
1017.921875,0.000000,0.000000,0.100000
1017.937500,0.000000,0.000000,0.100000
1017.953125,0.000000,0.000000,0.100000
1017.968750,0.000000,0.000000,0.100000
1017.984375,0.000000,0.000000,0.100000
1018.000000,0.000000,0.000000,0.100000
1018.015625,0.000000,0.000000,0.100000
1018.031250,0.000000,0.000000,0.100000
1018.046875,0.000000,0.000000,0.100000
1018.062500,0.000000,0.000000,0.100000
1018.078125,0.000000,0.000000,0.100000
1018.093750,0.000000,0.000000,0.100000
1018.109375,0.000000,0.000000,0.100000
1018.125000,0.000000,0.000000,0.100000
1018.140625,0.000000,0.000000,0.100000
1018.156250,0.000000,0.000000,0.100000
1018.171875,0.000000,0.000000,0.100000
1018.187500,0.000000,0.000000,0.100000
1018.203125,0.000000,0.000000,0.100000
1018.218750,0.000000,0.000000,0.100000
1018.234375,0.000000,0.000000,0.100000
1018.250000,0.000000,0.000000,0.100000
1018.265625,0.000000,0.000000,0.100000
1018.281250,0.000000,0.000000,0.100000
1018.296875,0.000000,0.000000,0.100000
1018.312500,0.000000,0.000000,0.100000
1018.328125,0.000000,0.000000,0.100000
1018.343750,0.000000,0.000000,0.100000
1018.359375,0.000000,0.000000,0.100000
1018.375000,0.000000,0.000000,0.100000
1018.390625,0.000000,0.000000,0.100000
1018.406250,0.000000,0.000000,0.100000
1018.421875,0.000000,0.000000,0.100000
1018.437500,0.000000,0.000000,0.100000
1018.453125,0.000000,0.000000,0.100000
1018.468750,0.000000,0.000000,0.100000
1018.484375,0.000000,0.000000,0.100000
1018.500000,0.000000,0.000000,0.100000
1018.515625,0.000000,0.000000,0.100000
1018.531250,0.000000,0.000000,0.100000
1018.546875,0.000000,0.000000,0.100000
1018.562500,0.045555,0.045555,0.100000
1018.578125,0.187618,0.187618,0.100000
1018.593750,0.396236,0.396236,0.100000
1018.609375,0.626963,0.626963,0.100000
1018.625000,0.830638,0.830638,0.100000
1018.640625,0.963868,0.963868,0.100000
1018.656250,0.998267,0.998267,0.100000
1018.671875,0.926504,0.926504,0.100000
1018.687500,0.763871,0.763871,0.100000
1018.703125,0.545017,0.545017,0.100000
1018.718750,0.316572,0.316572,0.100000
1018.734375,0.127208,0.127208,0.100000
1018.750000,0.017271,0.017271,0.100000
1018.765625,0.000000,0.000000,0.100000
1018.781250,0.000000,0.000000,0.100000
1018.796875,0.000000,0.000000,0.100000
1018.812500,0.000000,0.000000,0.100000
1018.828125,0.000000,0.000000,0.100000
1018.843750,0.000000,0.000000,0.100000
1018.859375,0.000000,0.000000,0.100000
1018.875000,0.000000,0.000000,0.100000
1018.890625,0.000000,0.000000,0.100000
1018.906250,0.000000,0.000000,0.100000
1018.921875,0.000000,0.000000,0.100000
1018.937500,0.000000,0.000000,0.100000
1018.953125,0.000000,0.000000,0.100000
1018.968750,0.000000,0.000000,0.100000
1018.984375,0.000000,0.000000,0.100000
1019.000000,0.000000,0.000000,0.100000
1019.015625,0.000000,0.000000,0.100000
1019.031250,0.000000,0.000000,0.100000
1019.046875,0.000000,0.000000,0.100000
1019.062500,0.000000,0.000000,0.100000
1019.078125,0.000000,0.000000,0.100000
1019.093750,0.000000,0.000000,0.100000
1019.109375,0.000000,0.000000,0.100000
1019.125000,0.000000,0.000000,0.100000
1019.140625,0.000000,0.000000,0.100000
1019.156250,0.000000,0.000000,0.100000
1019.171875,0.000000,0.000000,0.100000
1019.187500,0.000000,0.000000,0.100000
1019.203125,0.000000,0.000000,0.100000
1019.218750,0.000000,0.000000,0.100000
1019.234375,0.000000,0.000000,0.100000
1019.250000,0.000000,0.000000,0.100000
1019.265625,0.000000,0.000000,0.100000
1019.281250,0.000000,0.000000,0.100000
1019.296875,0.000000,0.000000,0.100000
1019.312500,0.000000,0.000000,0.100000
1019.328125,0.000000,0.000000,0.100000
1019.343750,0.000000,0.000000,0.100000
1019.359375,0.000000,0.000000,0.100000
1019.375000,0.000000,0.000000,0.100000
1019.390625,0.000000,0.000000,0.100000
1019.406250,0.049719,0.049719,0.100000
1019.421875,0.195311,0.195311,0.100000
1019.437500,0.405820,0.405820,0.100000
1019.453125,0.636394,0.636394,0.100000
1019.468750,0.837909,0.837909,0.100000
1019.484375,0.967429,0.967429,0.100000
1019.500000,0.997358,0.997358,0.100000
1019.515625,0.921321,0.921321,0.100000
1019.531250,0.755517,0.755517,0.100000
1019.546875,0.535272,0.535272,0.100000
1019.562500,0.307513,0.307513,0.100000
1019.578125,0.120765,0.120765,0.100000
1019.593750,0.014816,0.014816,0.100000
1019.609375,0.000000,0.000000,0.100000
1019.625000,0.000000,0.000000,0.100000
1019.640625,0.000000,0.000000,0.100000
1019.656250,0.000000,0.000000,0.100000
1019.671875,0.000000,0.000000,0.100000
1019.687500,0.000000,0.000000,0.100000
1019.703125,0.000000,0.000000,0.100000
1019.718750,0.000000,0.000000,0.100000
1019.734375,0.000000,0.000000,0.100000
1019.750000,0.000000,0.000000,0.100000
1019.765625,0.000000,0.000000,0.100000
1019.781250,0.000000,0.000000,0.100000
1019.796875,0.000000,0.000000,0.100000
1019.812500,0.000000,0.000000,0.100000
1019.828125,0.000000,0.000000,0.100000
1019.843750,0.000000,0.000000,0.100000
1019.859375,0.000000,0.000000,0.100000
1019.875000,0.000000,0.000000,0.100000
1019.890625,0.000000,0.000000,0.100000
1019.906250,0.000000,0.000000,0.100000
1019.921875,0.000000,0.000000,0.100000
1019.937500,0.000000,0.000000,0.100000
1019.953125,0.000000,0.000000,0.100000
1019.968750,0.000000,0.000000,0.100000
1019.984375,0.000000,0.000000,0.100000
1020.000000,0.000000,0.000000,0.100000
1020.015625,0.000000,0.000000,0.100000
1020.031250,0.000000,0.000000,0.100000
1020.046875,0.000000,0.000000,0.100000
1020.062500,0.000000,0.000000,0.100000
1020.078125,0.000000,0.000000,0.100000
1020.093750,0.000000,0.000000,0.100000
1020.109375,0.000000,0.000000,0.100000
1020.125000,0.000000,0.000000,0.100000
1020.140625,0.000000,0.000000,0.100000
1020.156250,0.000000,0.000000,0.100000
1020.171875,0.000000,0.000000,0.100000
1020.187500,0.000000,0.000000,0.100000
1020.203125,0.000000,0.000000,0.100000
1020.218750,0.000000,0.000000,0.100000
1020.234375,0.000003,0.000003,0.100000
1020.250000,0.054055,0.054055,0.100000
1020.265625,0.203121,0.203121,0.100000
1020.281250,0.415439,0.415439,0.100000
1020.296875,0.645774,0.645774,0.100000
1020.312500,0.845050,0.845050,0.100000
1020.328125,0.970810,0.970810,0.100000
1020.343750,0.996259,0.996259,0.100000
1020.359375,0.915976,0.915976,0.100000
1020.375000,0.747064,0.747064,0.100000
1020.390625,0.525514,0.525514,0.100000
1020.406250,0.298527,0.298527,0.100000
1020.421875,0.114466,0.114466,0.100000
1020.437500,0.012547,0.012547,0.100000
1020.453125,0.000000,0.000000,0.100000
1020.468750,0.000000,0.000000,0.100000
1020.484375,0.000000,0.000000,0.100000
1020.500000,0.000000,0.000000,0.100000
1020.515625,0.000000,0.000000,0.100000
1020.531250,0.000000,0.000000,0.100000
1020.546875,0.000000,0.000000,0.100000
1020.562500,0.000000,0.000000,0.100000
1020.578125,0.000000,0.000000,0.100000
1020.593750,0.000000,0.000000,0.100000
1020.609375,0.000000,0.000000,0.100000
1020.625000,0.000000,0.000000,0.100000
1020.640625,0.000000,0.000000,0.100000
1020.656250,0.000000,0.000000,0.100000
1020.671875,0.000000,0.000000,0.100000
1020.687500,0.000000,0.000000,0.100000
1020.703125,0.000000,0.000000,0.100000
1020.718750,0.000000,0.000000,0.100000
1020.734375,0.000000,0.000000,0.100000
1020.750000,0.000000,0.000000,0.100000
1020.765625,0.000000,0.000000,0.100000
1020.781250,0.000000,0.000000,0.100000
1020.796875,0.000000,0.000000,0.100000
1020.812500,0.000000,0.000000,0.100000
1020.828125,0.000000,0.000000,0.100000
1020.843750,0.000000,0.000000,0.100000
1020.859375,0.000000,0.000000,0.100000
1020.875000,0.000000,0.000000,0.100000
1020.890625,0.000000,0.000000,0.100000
1020.906250,0.000000,0.000000,0.100000
1020.921875,0.000000,0.000000,0.100000
1020.937500,0.000000,0.000000,0.100000
1020.953125,0.000000,0.000000,0.100000
1020.968750,0.000000,0.000000,0.100000
1020.984375,0.000000,0.000000,0.100000
1021.000000,0.000000,0.000000,0.100000
1021.015625,0.000000,0.000000,0.100000
1021.031250,0.000000,0.000000,0.100000
1021.046875,0.000000,0.000000,0.100000
1021.062500,0.000000,0.000000,0.100000
1021.078125,0.000133,0.000133,0.100000
1021.093750,0.058562,0.058562,0.100000
1021.109375,0.211044,0.211044,0.100000
1021.125000,0.425090,0.425090,0.100000
1021.140625,0.655097,0.655097,0.100000
1021.156250,0.852059,0.852059,0.100000
1021.171875,0.974012,0.974012,0.100000
1021.187500,0.994971,0.994971,0.100000
1021.203125,0.910472,0.910472,0.100000
1021.218750,0.738518,0.738518,0.100000
1021.234375,0.515745,0.515745,0.100000
1021.250000,0.289618,0.289618,0.100000
1021.265625,0.108314,0.108314,0.100000
1021.281250,0.010464,0.010464,0.100000
1021.296875,0.000000,0.000000,0.100000
1021.312500,0.000000,0.000000,0.100000
1021.328125,0.000000,0.000000,0.100000
1021.343750,0.000000,0.000000,0.100000
1021.359375,0.000000,0.000000,0.100000
1021.375000,0.000000,0.000000,0.100000
1021.390625,0.000000,0.000000,0.100000
1021.406250,0.000000,0.000000,0.100000
1021.421875,0.000000,0.000000,0.100000
1021.437500,0.000000,0.000000,0.100000
1021.453125,0.000000,0.000000,0.100000
1021.468750,0.000000,0.000000,0.100000
1021.484375,0.000000,0.000000,0.100000
1021.500000,0.000000,0.000000,0.100000
1021.515625,0.000000,0.000000,0.100000
1021.531250,0.000000,0.000000,0.100000
1021.546875,0.000000,0.000000,0.100000
1021.562500,0.000000,0.000000,0.100000
1021.578125,0.000000,0.000000,0.100000
1021.593750,0.000000,0.000000,0.100000
1021.609375,0.000000,0.000000,0.100000
1021.625000,0.000000,0.000000,0.100000
1021.640625,0.000000,0.000000,0.100000
1021.656250,0.000000,0.000000,0.100000
1021.671875,0.000000,0.000000,0.100000
1021.687500,0.000000,0.000000,0.100000
1021.703125,0.000000,0.000000,0.100000
1021.718750,0.000000,0.000000,0.100000
1021.734375,0.000000,0.000000,0.100000
1021.750000,0.000000,0.000000,0.100000
1021.765625,0.000000,0.000000,0.100000
1021.781250,0.000000,0.000000,0.100000
1021.796875,0.000000,0.000000,0.100000
1021.812500,0.000000,0.000000,0.100000
1021.828125,0.000000,0.000000,0.100000
1021.843750,0.000000,0.000000,0.100000
1021.859375,0.000000,0.000000,0.100000
1021.875000,0.000000,0.000000,0.100000
1021.890625,0.000000,0.000000,0.100000
1021.906250,0.000000,0.000000,0.100000
1021.921875,0.000454,0.000454,0.100000
1021.937500,0.063237,0.063237,0.100000
1021.953125,0.219077,0.219077,0.100000
1021.968750,0.434771,0.434771,0.100000
1021.984375,0.664362,0.664362,0.100000
1022.000000,0.858934,0.858934,0.100000
1022.015625,0.977032,0.977032,0.100000
1022.031250,0.993493,0.993493,0.100000
1022.046875,0.904811,0.904811,0.100000
1022.062500,0.729880,0.729880,0.100000
1022.078125,0.505971,0.505971,0.100000
1022.093750,0.280789,0.280789,0.100000
1022.109375,0.102313,0.102313,0.100000
1022.125000,0.008568,0.008568,0.100000
1022.140625,0.000000,0.000000,0.100000
1022.156250,0.000000,0.000000,0.100000
1022.171875,0.000000,0.000000,0.100000
1022.187500,0.000000,0.000000,0.100000
1022.203125,0.000000,0.000000,0.100000
1022.218750,0.000000,0.000000,0.100000
1022.234375,0.000000,0.000000,0.100000
1022.250000,0.000000,0.000000,0.100000
1022.265625,0.000000,0.000000,0.100000
1022.281250,0.000000,0.000000,0.100000
1022.296875,0.000000,0.000000,0.100000
1022.312500,0.000000,0.000000,0.100000
1022.328125,0.000000,0.000000,0.100000
1022.343750,0.000000,0.000000,0.100000
1022.359375,0.000000,0.000000,0.100000
1022.375000,0.000000,0.000000,0.100000
1022.390625,0.000000,0.000000,0.100000
1022.406250,0.000000,0.000000,0.100000
1022.421875,0.000000,0.000000,0.100000
1022.437500,0.000000,0.000000,0.100000
1022.453125,0.000000,0.000000,0.100000
1022.468750,0.000000,0.000000,0.100000
1022.484375,0.000000,0.000000,0.100000
1022.500000,0.000000,0.000000,0.100000
1022.515625,0.000000,0.000000,0.100000
1022.531250,0.000000,0.000000,0.100000
1022.546875,0.000000,0.000000,0.100000
1022.562500,0.000000,0.000000,0.100000
1022.578125,0.000000,0.000000,0.100000
1022.593750,0.000000,0.000000,0.100000
1022.609375,0.000000,0.000000,0.100000
1022.625000,0.000000,0.000000,0.100000
1022.640625,0.000000,0.000000,0.100000
1022.656250,0.000000,0.000000,0.100000
1022.671875,0.000000,0.000000,0.100000
1022.687500,0.000000,0.000000,0.100000
1022.703125,0.000000,0.000000,0.100000
1022.718750,0.000000,0.000000,0.100000
1022.734375,0.000000,0.000000,0.100000
1022.750000,0.000000,0.000000,0.100000
1022.765625,0.000966,0.000966,0.100000
1022.781250,0.068080,0.068080,0.100000
1022.796875,0.227218,0.227218,0.100000
1022.812500,0.444476,0.444476,0.100000
1022.828125,0.673563,0.673563,0.100000
1022.843750,0.865671,0.865671,0.100000
1022.859375,0.979870,0.979870,0.100000
1022.875000,0.991827,0.991827,0.100000
1022.890625,0.898996,0.898996,0.100000
1022.906250,0.721154,0.721154,0.100000
1022.921875,0.496194,0.496194,0.100000
1022.937500,0.272045,0.272045,0.100000
1022.953125,0.096463,0.096463,0.100000
1022.968750,0.006860,0.006860,0.100000
1022.984375,0.000000,0.000000,0.100000
1023.000000,0.000000,0.000000,0.100000
1023.015625,0.000000,0.000000,0.100000
1023.031250,0.000000,0.000000,0.100000
1023.046875,0.000000,0.000000,0.100000
1023.062500,0.000000,0.000000,0.100000
1023.078125,0.000000,0.000000,0.100000
1023.093750,0.000000,0.000000,0.100000
1023.109375,0.000000,0.000000,0.100000
1023.125000,0.000000,0.000000,0.100000
1023.140625,0.000000,0.000000,0.100000
1023.156250,0.000000,0.000000,0.100000
1023.171875,0.000000,0.000000,0.100000
1023.187500,0.000000,0.000000,0.100000
1023.203125,0.000000,0.000000,0.100000
1023.218750,0.000000,0.000000,0.100000
1023.234375,0.000000,0.000000,0.100000
1023.250000,0.000000,0.000000,0.100000
1023.265625,0.000000,0.000000,0.100000
1023.281250,0.000000,0.000000,0.100000
1023.296875,0.000000,0.000000,0.100000
1023.312500,0.000000,0.000000,0.100000
1023.328125,0.000000,0.000000,0.100000
1023.343750,0.000000,0.000000,0.100000
1023.359375,0.000000,0.000000,0.100000
1023.375000,0.000000,0.000000,0.100000
1023.390625,0.000000,0.000000,0.100000
1023.406250,0.000000,0.000000,0.100000
1023.421875,0.000000,0.000000,0.100000
1023.437500,0.000000,0.000000,0.100000
1023.453125,0.000000,0.000000,0.100000
1023.468750,0.000000,0.000000,0.100000
1023.484375,0.000000,0.000000,0.100000
1023.500000,0.000000,0.000000,0.100000
1023.515625,0.000000,0.000000,0.100000
1023.531250,0.000000,0.000000,0.100000
1023.546875,0.000000,0.000000,0.100000
1023.562500,0.000000,0.000000,0.100000
1023.578125,0.000000,0.000000,0.100000
1023.593750,0.000000,0.000000,0.100000
1023.609375,0.001669,0.001669,0.100000
1023.625000,0.073087,0.073087,0.100000
1023.640625,0.235464,0.235464,0.100000
1023.656250,0.454202,0.454202,0.100000
1023.671875,0.682698,0.682698,0.100000
1023.687500,0.872269,0.872269,0.100000
1023.703125,0.982524,0.982524,0.100000
1023.718750,0.989972,0.989972,0.100000
1023.734375,0.893027,0.893027,0.100000
1023.750000,0.712344,0.712344,0.100000
1023.765625,0.486419,0.486419,0.100000
1023.781250,0.263387,0.263387,0.100000
1023.796875,0.090768,0.090768,0.100000
1023.812500,0.005340,0.005340,0.100000
1023.828125,0.000000,0.000000,0.100000
1023.843750,0.000000,0.000000,0.100000
1023.859375,0.000000,0.000000,0.100000
1023.875000,0.000000,0.000000,0.100000
1023.890625,0.000000,0.000000,0.100000
1023.906250,0.000000,0.000000,0.100000
1023.921875,0.000000,0.000000,0.100000
1023.937500,0.000000,0.000000,0.100000
1023.953125,0.000000,0.000000,0.100000
1023.968750,0.000000,0.000000,0.100000
1023.984375,0.000000,0.000000,0.100000
1024.000000,0.000000,0.000000,0.100000
1024.015625,0.000000,0.000000,0.100000
1024.031250,0.000000,0.000000,0.100000
1024.046875,0.000000,0.000000,0.100000
1024.062500,0.000000,0.000000,0.100000
1024.078125,0.000000,0.000000,0.100000
1024.093750,0.000000,0.000000,0.100000
1024.109375,0.000000,0.000000,0.100000
1024.125000,0.000000,0.000000,0.100000
1024.140625,0.000000,0.000000,0.100000
1024.156250,0.000000,0.000000,0.100000
1024.171875,0.000000,0.000000,0.100000
1024.187500,0.000000,0.000000,0.100000
1024.203125,0.000000,0.000000,0.100000
1024.218750,0.000000,0.000000,0.100000
1024.234375,0.000000,0.000000,0.100000
1024.250000,0.000000,0.000000,0.100000
1024.265625,0.000000,0.000000,0.100000
1024.281250,0.000000,0.000000,0.100000
1024.296875,0.000000,0.000000,0.100000
1024.312500,0.000000,0.000000,0.100000
1024.328125,0.000000,0.000000,0.100000
1024.343750,0.000000,0.000000,0.100000
1024.359375,0.000000,0.000000,0.100000
1024.375000,0.000000,0.000000,0.100000
1024.390625,0.000000,0.000000,0.100000
1024.406250,0.000000,0.000000,0.100000
1024.421875,0.000000,0.000000,0.100000
1024.437500,0.000000,0.000000,0.100000
1024.453125,0.002562,0.002562,0.100000
1024.468750,0.078258,0.078258,0.100000
1024.484375,0.243810,0.243810,0.100000
1024.500000,0.463946,0.463946,0.100000
1024.515625,0.691764,0.691764,0.100000
1024.531250,0.878724,0.878724,0.100000
1024.546875,0.984994,0.984994,0.100000
1024.562500,0.987931,0.987931,0.100000
1024.578125,0.886909,0.886909,0.100000
1024.593750,0.703453,0.703453,0.100000
1024.609375,0.476649,0.476649,0.100000
1024.625000,0.254820,0.254820,0.100000
1024.640625,0.085229,0.085229,0.100000
1024.656250,0.004010,0.004010,0.100000
1024.671875,0.000000,0.000000,0.100000
1024.687500,0.000000,0.000000,0.100000
1024.703125,0.000000,0.000000,0.100000
1024.718750,0.000000,0.000000,0.100000
1024.734375,0.000000,0.000000,0.100000
1024.750000,0.000000,0.000000,0.100000
1024.765625,0.000000,0.000000,0.100000
1024.781250,0.000000,0.000000,0.100000
1024.796875,0.000000,0.000000,0.100000
1024.812500,0.000000,0.000000,0.100000
1024.828125,0.000000,0.000000,0.100000
1024.843750,0.000000,0.000000,0.100000
1024.859375,0.000000,0.000000,0.100000
1024.875000,0.000000,0.000000,0.100000
1024.890625,0.000000,0.000000,0.100000
1024.906250,0.000000,0.000000,0.100000
1024.921875,0.000000,0.000000,0.100000
1024.937500,0.000000,0.000000,0.100000
1024.953125,0.000000,0.000000,0.100000
1024.968750,0.000000,0.000000,0.100000
1024.984375,0.000000,0.000000,0.100000
1025.000000,0.000000,0.000000,0.100000
1025.015625,0.000000,0.000000,0.100000
1025.031250,0.000000,0.000000,0.100000
1025.046875,0.000000,0.000000,0.100000
1025.062500,0.000000,0.000000,0.100000
1025.078125,0.000000,0.000000,0.100000
1025.093750,0.000000,0.000000,0.100000
1025.109375,0.000000,0.000000,0.100000
1025.125000,0.000000,0.000000,0.100000
1025.140625,0.000000,0.000000,0.100000
1025.156250,0.000000,0.000000,0.100000
1025.171875,0.000000,0.000000,0.100000
1025.187500,0.000000,0.000000,0.100000
1025.203125,0.000000,0.000000,0.100000
1025.218750,0.000000,0.000000,0.100000
1025.234375,0.000000,0.000000,0.100000
1025.250000,0.000000,0.000000,0.100000
1025.265625,0.000000,0.000000,0.100000
1025.281250,0.000000,0.000000,0.100000
1025.296875,0.003646,0.003646,0.100000
1025.312500,0.083590,0.083590,0.100000
1025.328125,0.252255,0.252255,0.100000
1025.343750,0.473704,0.473704,0.100000
1025.359375,0.700756,0.700756,0.100000
1025.375000,0.885035,0.885035,0.100000
1025.390625,0.987278,0.987278,0.100000
1025.406250,0.985702,0.985702,0.100000
1025.421875,0.880643,0.880643,0.100000
1025.437500,0.694483,0.694483,0.100000
1025.453125,0.466888,0.466888,0.100000
1025.468750,0.246347,0.246347,0.100000
1025.484375,0.079849,0.079849,0.100000
1025.500000,0.002869,0.002869,0.100000
1025.515625,0.000000,0.000000,0.100000
1025.531250,0.000000,0.000000,0.100000
1025.546875,0.000000,0.000000,0.100000
1025.562500,0.000000,0.000000,0.100000
1025.578125,0.000000,0.000000,0.100000
1025.593750,0.000000,0.000000,0.100000
1025.609375,0.000000,0.000000,0.100000
1025.625000,0.000000,0.000000,0.100000
1025.640625,0.000000,0.000000,0.100000
1025.656250,0.000000,0.000000,0.100000
1025.671875,0.000000,0.000000,0.100000
1025.687500,0.000000,0.000000,0.100000
1025.703125,0.000000,0.000000,0.100000
1025.718750,0.000000,0.000000,0.100000
1025.734375,0.000000,0.000000,0.100000
1025.750000,0.000000,0.000000,0.100000
1025.765625,0.000000,0.000000,0.100000
1025.781250,0.000000,0.000000,0.100000
1025.796875,0.000000,0.000000,0.100000
1025.812500,0.000000,0.000000,0.100000
1025.828125,0.000000,0.000000,0.100000
1025.843750,0.000000,0.000000,0.100000
1025.859375,0.000000,0.000000,0.100000
1025.875000,0.000000,0.000000,0.100000
1025.890625,0.000000,0.000000,0.100000
1025.906250,0.000000,0.000000,0.100000
1025.921875,0.000000,0.000000,0.100000
1025.937500,0.000000,0.000000,0.100000
1025.953125,0.000000,0.000000,0.100000
1025.968750,0.000000,0.000000,0.100000
1025.984375,0.000000,0.000000,0.100000
1026.000000,0.000000,0.000000,0.100000
1026.015625,0.000000,0.000000,0.100000
1026.031250,0.000000,0.000000,0.100000
1026.046875,0.000000,0.000000,0.100000
1026.062500,0.000000,0.000000,0.100000
1026.078125,0.000000,0.000000,0.100000
1026.093750,0.000000,0.000000,0.100000
1026.109375,0.000000,0.000000,0.100000
1026.125000,0.000000,0.000000,0.100000
1026.140625,0.004919,0.004919,0.100000
1026.156250,0.089081,0.089081,0.100000
1026.171875,0.260794,0.260794,0.100000
1026.187500,0.483472,0.483472,0.100000
1026.203125,0.709671,0.709671,0.100000
1026.218750,0.891198,0.891198,0.100000
1026.234375,0.989376,0.989376,0.100000
1026.250000,0.983288,0.983288,0.100000
1026.265625,0.874231,0.874231,0.100000
1026.281250,0.685440,0.685440,0.100000
1026.296875,0.457139,0.457139,0.100000
1026.312500,0.237970,0.237970,0.100000
1026.328125,0.074629,0.074629,0.100000
1026.343750,0.001918,0.001918,0.100000
1026.359375,0.000000,0.000000,0.100000
1026.375000,0.000000,0.000000,0.100000
1026.390625,0.000000,0.000000,0.100000
1026.406250,0.000000,0.000000,0.100000
1026.421875,0.000000,0.000000,0.100000
1026.437500,0.000000,0.000000,0.100000
1026.453125,0.000000,0.000000,0.100000
1026.468750,0.000000,0.000000,0.100000
1026.484375,0.000000,0.000000,0.100000
1026.500000,0.000000,0.000000,0.100000
1026.515625,0.000000,0.000000,0.100000
1026.531250,0.000000,0.000000,0.100000
1026.546875,0.000000,0.000000,0.100000
1026.562500,0.000000,0.000000,0.100000
1026.578125,0.000000,0.000000,0.100000
1026.593750,0.000000,0.000000,0.100000
1026.609375,0.000000,0.000000,0.100000
1026.625000,0.000000,0.000000,0.100000
1026.640625,0.000000,0.000000,0.100000
1026.656250,0.000000,0.000000,0.100000
1026.671875,0.000000,0.000000,0.100000
1026.687500,0.000000,0.000000,0.100000
1026.703125,0.000000,0.000000,0.100000
1026.718750,0.000000,0.000000,0.100000
1026.734375,0.000000,0.000000,0.100000
1026.750000,0.000000,0.000000,0.100000
1026.765625,0.000000,0.000000,0.100000
1026.781250,0.000000,0.000000,0.100000
1026.796875,0.000000,0.000000,0.100000
1026.812500,0.000000,0.000000,0.100000
1026.828125,0.000000,0.000000,0.100000
1026.843750,0.000000,0.000000,0.100000
1026.859375,0.000000,0.000000,0.100000
1026.875000,0.000000,0.000000,0.100000
1026.890625,0.000000,0.000000,0.100000
1026.906250,0.000000,0.000000,0.100000
1026.921875,0.000000,0.000000,0.100000
1026.937500,0.000000,0.000000,0.100000
1026.953125,0.000000,0.000000,0.100000
1026.968750,0.000000,0.000000,0.100000
1026.984375,0.006381,0.006381,0.100000
1027.000000,0.094729,0.094729,0.100000
1027.015625,0.269424,0.269424,0.100000
1027.031250,0.493246,0.493246,0.100000
1027.046875,0.718506,0.718506,0.100000
1027.062500,0.897212,0.897212,0.100000
1027.078125,0.991287,0.991287,0.100000
1027.093750,0.980689,0.980689,0.100000
1027.109375,0.867676,0.867676,0.100000
1027.125000,0.676325,0.676325,0.100000
1027.140625,0.447407,0.447407,0.100000
1027.156250,0.229694,0.229694,0.100000
1027.171875,0.069573,0.069573,0.100000
1027.187500,0.001158,0.001158,0.100000
1027.203125,0.000000,0.000000,0.100000
1027.218750,0.000000,0.000000,0.100000
1027.234375,0.000000,0.000000,0.100000
1027.250000,0.000000,0.000000,0.100000
1027.265625,0.000000,0.000000,0.100000
1027.281250,0.000000,0.000000,0.100000
1027.296875,0.000000,0.000000,0.100000
1027.312500,0.000000,0.000000,0.100000
1027.328125,0.000000,0.000000,0.100000
1027.343750,0.000000,0.000000,0.100000
1027.359375,0.000000,0.000000,0.100000
1027.375000,0.000000,0.000000,0.100000
1027.390625,0.000000,0.000000,0.100000
1027.406250,0.000000,0.000000,0.100000
1027.421875,0.000000,0.000000,0.100000
1027.437500,0.000000,0.000000,0.100000
1027.453125,0.000000,0.000000,0.100000
1027.468750,0.000000,0.000000,0.100000
1027.484375,0.000000,0.000000,0.100000
1027.500000,0.000000,0.000000,0.100000
1027.515625,0.000000,0.000000,0.100000
1027.531250,0.000000,0.000000,0.100000
1027.546875,0.000000,0.000000,0.100000
1027.562500,0.000000,0.000000,0.100000
1027.578125,0.000000,0.000000,0.100000
1027.593750,0.000000,0.000000,0.100000
1027.609375,0.000000,0.000000,0.100000
1027.625000,0.000000,0.000000,0.100000
1027.640625,0.000000,0.000000,0.100000
1027.656250,0.000000,0.000000,0.100000
1027.671875,0.000000,0.000000,0.100000
1027.687500,0.000000,0.000000,0.100000
1027.703125,0.000000,0.000000,0.100000
1027.718750,0.000000,0.000000,0.100000
1027.734375,0.000000,0.000000,0.100000
1027.750000,0.000000,0.000000,0.100000
1027.765625,0.000000,0.000000,0.100000
1027.781250,0.000000,0.000000,0.100000
1027.796875,0.000000,0.000000,0.100000
1027.812500,0.000000,0.000000,0.100000
1027.828125,0.008033,0.008033,0.100000
1027.843750,0.100533,0.100533,0.100000
1027.859375,0.278143,0.278143,0.100000
1027.875000,0.503022,0.503022,0.100000
1027.890625,0.727258,0.727258,0.100000
1027.906250,0.903073,0.903073,0.100000
1027.921875,0.993011,0.993011,0.100000
1027.937500,0.977907,0.977907,0.100000
1027.953125,0.860980,0.860980,0.100000
1027.968750,0.667143,0.667143,0.100000
1027.984375,0.437695,0.437695,0.100000
1028.000000,0.221521,0.221521,0.100000
1028.015625,0.064680,0.064680,0.100000
1028.031250,0.000588,0.000588,0.100000
1028.046875,0.000000,0.000000,0.100000
1028.062500,0.000000,0.000000,0.100000
1028.078125,0.000000,0.000000,0.100000
1028.093750,0.000000,0.000000,0.100000
1028.109375,0.000000,0.000000,0.100000
1028.125000,0.000000,0.000000,0.100000
1028.140625,0.000000,0.000000,0.100000
1028.156250,0.000000,0.000000,0.100000
1028.171875,0.000000,0.000000,0.100000
1028.187500,0.000000,0.000000,0.100000
1028.203125,0.000000,0.000000,0.100000
1028.218750,0.000000,0.000000,0.100000
1028.234375,0.000000,0.000000,0.100000
1028.250000,0.000000,0.000000,0.100000
1028.265625,0.000000,0.000000,0.100000
1028.281250,0.000000,0.000000,0.100000
1028.296875,0.000000,0.000000,0.100000
1028.312500,0.000000,0.000000,0.100000
1028.328125,0.000000,0.000000,0.100000
1028.343750,0.000000,0.000000,0.100000
1028.359375,0.000000,0.000000,0.100000
1028.375000,0.000000,0.000000,0.100000
1028.390625,0.000000,0.000000,0.100000
1028.406250,0.000000,0.000000,0.100000
1028.421875,0.000000,0.000000,0.100000
1028.437500,0.000000,0.000000,0.100000
1028.453125,0.000000,0.000000,0.100000
1028.468750,0.000000,0.000000,0.100000
1028.484375,0.000000,0.000000,0.100000
1028.500000,0.000000,0.000000,0.100000
1028.515625,0.000000,0.000000,0.100000
1028.531250,0.000000,0.000000,0.100000
1028.546875,0.000000,0.000000,0.100000
1028.562500,0.000000,0.000000,0.100000
1028.578125,0.000000,0.000000,0.100000
1028.593750,0.000000,0.000000,0.100000
1028.609375,0.000000,0.000000,0.100000
1028.625000,0.000000,0.000000,0.100000
1028.640625,0.000000,0.000000,0.100000
1028.656250,0.000000,0.000000,0.100000
1028.671875,0.009872,0.009872,0.100000
1028.687500,0.106489,0.106489,0.100000
1028.703125,0.286947,0.286947,0.100000
1028.718750,0.512798,0.512798,0.100000
1028.734375,0.735922,0.735922,0.100000
1028.750000,0.908781,0.908781,0.100000
1028.765625,0.994545,0.994545,0.100000
1028.781250,0.974941,0.974941,0.100000
1028.796875,0.854147,0.854147,0.100000
1028.812500,0.657898,0.657898,0.100000
1028.828125,0.428007,0.428007,0.100000
1028.843750,0.213455,0.213455,0.100000
1028.859375,0.059954,0.059954,0.100000
1028.875000,0.000210,0.000210,0.100000
1028.890625,0.000000,0.000000,0.100000
1028.906250,0.000000,0.000000,0.100000
1028.921875,0.000000,0.000000,0.100000
1028.937500,0.000000,0.000000,0.100000
1028.953125,0.000000,0.000000,0.100000
1028.968750,0.000000,0.000000,0.100000
1028.984375,0.000000,0.000000,0.100000
1029.000000,0.000000,0.000000,0.100000
1029.015625,0.000000,0.000000,0.100000
1029.031250,0.000000,0.000000,0.100000
1029.046875,0.000000,0.000000,0.100000
1029.062500,0.000000,0.000000,0.100000
1029.078125,0.000000,0.000000,0.100000
1029.093750,0.000000,0.000000,0.100000
1029.109375,0.000000,0.000000,0.100000
1029.125000,0.000000,0.000000,0.100000
1029.140625,0.000000,0.000000,0.100000
1029.156250,0.000000,0.000000,0.100000
1029.171875,0.000000,0.000000,0.100000
1029.187500,0.000000,0.000000,0.100000
1029.203125,0.000000,0.000000,0.100000
1029.218750,0.000000,0.000000,0.100000
1029.234375,0.000000,0.000000,0.100000
1029.250000,0.000000,0.000000,0.100000
1029.265625,0.000000,0.000000,0.100000
1029.281250,0.000000,0.000000,0.100000
1029.296875,0.000000,0.000000,0.100000
1029.312500,0.000000,0.000000,0.100000
1029.328125,0.000000,0.000000,0.100000
1029.343750,0.000000,0.000000,0.100000
1029.359375,0.000000,0.000000,0.100000
1029.375000,0.000000,0.000000,0.100000
1029.390625,0.000000,0.000000,0.100000
1029.406250,0.000000,0.000000,0.100000
1029.421875,0.000000,0.000000,0.100000
1029.437500,0.000000,0.000000,0.100000
1029.453125,0.000000,0.000000,0.100000
1029.468750,0.000000,0.000000,0.100000
1029.484375,0.000000,0.000000,0.100000
1029.500000,0.000000,0.000000,0.100000
1029.515625,0.011899,0.011899,0.100000
1029.531250,0.112595,0.112595,0.100000
1029.546875,0.295832,0.295832,0.100000
1029.562500,0.522568,0.522568,0.100000
1029.578125,0.744497,0.744497,0.100000
1029.593750,0.914333,0.914333,0.100000
1029.609375,0.995891,0.995891,0.100000
1029.625000,0.971795,0.971795,0.100000
1029.640625,0.847178,0.847178,0.100000
1029.656250,0.648591,0.648591,0.100000
1029.671875,0.418346,0.418346,0.100000
1029.687500,0.205498,0.205498,0.100000
1029.703125,0.055397,0.055397,0.100000
1029.718750,0.000022,0.000022,0.100000
1029.734375,0.000000,0.000000,0.100000
1029.750000,0.000000,0.000000,0.100000
1029.765625,0.000000,0.000000,0.100000
1029.781250,0.000000,0.000000,0.100000
1029.796875,0.000000,0.000000,0.100000
1029.812500,0.000000,0.000000,0.100000
1029.828125,0.000000,0.000000,0.100000
1029.843750,0.000000,0.000000,0.100000
1029.859375,0.000000,0.000000,0.100000
1029.875000,0.000000,0.000000,0.100000
1029.890625,0.000000,0.000000,0.100000
1029.906250,0.000000,0.000000,0.100000
1029.921875,0.000000,0.000000,0.100000
1029.937500,0.000000,0.000000,0.100000
1029.953125,0.000000,0.000000,0.100000
1029.968750,0.000000,0.000000,0.100000
1029.984375,0.000000,0.000000,0.100000
1030.000000,0.000000,0.000000,0.100000
1030.015625,0.056983,0.056983,0.100000
1030.031250,0.214945,0.214945,0.100000
1030.046875,0.437880,0.437880,0.100000
1030.062500,0.674974,0.674974,0.100000
1030.078125,0.872186,0.872186,0.100000
1030.093750,0.984564,0.984564,0.100000
1030.109375,0.986494,0.986494,0.100000
1030.125000,0.877537,0.877537,0.100000
1030.140625,0.682525,0.682525,0.100000
1030.156250,0.445911,0.445911,0.100000
1030.171875,0.221625,0.221625,0.100000
1030.187500,0.060790,0.060790,0.100000
1030.203125,0.000065,0.000065,0.100000
1030.218750,0.000000,0.000000,0.100000
1030.234375,0.000000,0.000000,0.100000
1030.250000,0.000000,0.000000,0.100000
1030.265625,0.000000,0.000000,0.100000
1030.281250,0.000000,0.000000,0.100000
1030.296875,0.000000,0.000000,0.100000
1030.312500,0.000000,0.000000,0.100000
1030.328125,0.000000,0.000000,0.100000
1030.343750,0.000000,0.000000,0.100000
1030.359375,0.000000,0.000000,0.100000
1030.375000,0.000000,0.000000,0.100000
1030.390625,0.000000,0.000000,0.100000
1030.406250,0.000000,0.000000,0.100000
1030.421875,0.000000,0.000000,0.100000
1030.437500,0.000000,0.000000,0.100000
1030.453125,0.000000,0.000000,0.100000
1030.468750,0.000000,0.000000,0.100000
1030.484375,0.000000,0.000000,0.100000
1030.500000,0.000000,0.000000,0.100000
1030.515625,0.000000,0.000000,0.100000
1030.531250,0.000000,0.000000,0.100000
1030.546875,0.000000,0.000000,0.100000
1030.562500,0.000000,0.000000,0.100000
1030.578125,0.000000,0.000000,0.100000
1030.593750,0.000000,0.000000,0.100000
1030.609375,0.000000,0.000000,0.100000
1030.625000,0.000000,0.000000,0.100000
1030.640625,0.000000,0.000000,0.100000
1030.656250,0.000000,0.000000,0.100000
1030.671875,0.000000,0.000000,0.100000
1030.687500,0.000000,0.000000,0.100000
1030.703125,0.000000,0.000000,0.100000
1030.718750,0.000000,0.000000,0.100000
1030.734375,0.000000,0.000000,0.100000
1030.750000,0.000000,0.000000,0.100000
1030.765625,0.000000,0.000000,0.100000
1030.781250,0.000000,0.000000,0.100000
1030.796875,0.000000,0.000000,0.100000
1030.812500,0.000000,0.000000,0.100000
1030.828125,0.042925,0.042925,0.100000
1030.843750,0.188986,0.188986,0.100000
1030.859375,0.405938,0.405938,0.100000
1030.875000,0.644330,0.644330,0.100000
1030.890625,0.849824,0.849824,0.100000
1030.906250,0.975582,0.975582,0.100000
1030.921875,0.992938,0.992938,0.100000
1030.937500,0.897938,0.897938,0.100000
1030.953125,0.712235,0.712235,0.100000
1030.968750,0.478156,0.478156,0.100000
1030.984375,0.249056,0.249056,0.100000
1031.000000,0.077155,0.077155,0.100000
1031.015625,0.001634,0.001634,0.100000
1031.031250,0.000000,0.000000,0.100000
1031.046875,0.000000,0.000000,0.100000
1031.062500,0.000000,0.000000,0.100000
1031.078125,0.000000,0.000000,0.100000
1031.093750,0.000000,0.000000,0.100000
1031.109375,0.000000,0.000000,0.100000
1031.125000,0.000000,0.000000,0.100000
1031.140625,0.000000,0.000000,0.100000
1031.156250,0.000000,0.000000,0.100000
1031.171875,0.000000,0.000000,0.100000
1031.187500,0.000000,0.000000,0.100000
1031.203125,0.000000,0.000000,0.100000
1031.218750,0.000000,0.000000,0.100000
1031.234375,0.000000,0.000000,0.100000
1031.250000,0.000000,0.000000,0.100000
1031.265625,0.000000,0.000000,0.100000
1031.281250,0.000000,0.000000,0.100000
1031.296875,0.000000,0.000000,0.100000
1031.312500,0.000000,0.000000,0.100000
1031.328125,0.000000,0.000000,0.100000
1031.343750,0.000000,0.000000,0.100000
1031.359375,0.000000,0.000000,0.100000
1031.375000,0.000000,0.000000,0.100000
1031.390625,0.000000,0.000000,0.100000
1031.406250,0.000000,0.000000,0.100000
1031.421875,0.000000,0.000000,0.100000
1031.437500,0.000000,0.000000,0.100000
1031.453125,0.000000,0.000000,0.100000
1031.468750,0.000000,0.000000,0.100000
1031.484375,0.000000,0.000000,0.100000
1031.500000,0.000000,0.000000,0.100000
1031.515625,0.000000,0.000000,0.100000
1031.531250,0.000000,0.000000,0.100000
1031.546875,0.000000,0.000000,0.100000
1031.562500,0.000000,0.000000,0.100000
1031.578125,0.000000,0.000000,0.100000
1031.593750,0.000000,0.000000,0.100000
1031.609375,0.000000,0.000000,0.100000
1031.625000,0.000000,0.000000,0.100000
1031.640625,0.030778,0.030778,0.100000
1031.656250,0.164329,0.164329,0.100000
1031.671875,0.374390,0.374390,0.100000
1031.687500,0.613082,0.613082,0.100000
1031.703125,0.825999,0.825999,0.100000
1031.718750,0.964610,0.964610,0.100000
1031.734375,0.997320,0.997320,0.100000
1031.750000,0.916676,0.916676,0.100000
1031.765625,0.741057,0.741057,0.100000
1031.781250,0.510493,0.510493,0.100000
1031.796875,0.277537,0.277537,0.100000
1031.812500,0.095289,0.095289,0.100000
1031.828125,0.005287,0.005287,0.100000
1031.843750,0.000000,0.000000,0.100000
1031.859375,0.000000,0.000000,0.100000
1031.875000,0.000000,0.000000,0.100000
1031.890625,0.000000,0.000000,0.100000
1031.906250,0.000000,0.000000,0.100000
1031.921875,0.000000,0.000000,0.100000
1031.937500,0.000000,0.000000,0.100000
1031.953125,0.000000,0.000000,0.100000
1031.968750,0.000000,0.000000,0.100000
1031.984375,0.000000,0.000000,0.100000
1032.000000,0.000000,0.000000,0.100000
1032.015625,0.000000,0.000000,0.100000
1032.031250,0.000000,0.000000,0.100000
1032.046875,0.000000,0.000000,0.100000
1032.062500,0.000000,0.000000,0.100000
1032.078125,0.000000,0.000000,0.100000
1032.093750,0.000000,0.000000,0.100000
1032.109375,0.000000,0.000000,0.100000
1032.125000,0.000000,0.000000,0.100000
1032.140625,0.000000,0.000000,0.100000
1032.156250,0.000000,0.000000,0.100000
1032.171875,0.000000,0.000000,0.100000
1032.187500,0.000000,0.000000,0.100000
1032.203125,0.000000,0.000000,0.100000
1032.218750,0.000000,0.000000,0.100000
1032.234375,0.000000,0.000000,0.100000
1032.250000,0.000000,0.000000,0.100000
1032.265625,0.000000,0.000000,0.100000
1032.281250,0.000000,0.000000,0.100000
1032.296875,0.000000,0.000000,0.100000
1032.312500,0.000000,0.000000,0.100000
1032.328125,0.000000,0.000000,0.100000
1032.343750,0.000000,0.000000,0.100000
1032.359375,0.000000,0.000000,0.100000
1032.375000,0.000000,0.000000,0.100000
1032.390625,0.000000,0.000000,0.100000
1032.406250,0.000000,0.000000,0.100000
1032.421875,0.000000,0.000000,0.100000
1032.437500,0.000000,0.000000,0.100000
1032.453125,0.020595,0.020595,0.100000
1032.468750,0.141076,0.141076,0.100000
1032.484375,0.343368,0.343368,0.100000
1032.500000,0.581361,0.581361,0.100000
1032.515625,0.800810,0.800810,0.100000
1032.531250,0.951694,0.951694,0.100000
1032.546875,0.999622,0.999622,0.100000
1032.562500,0.933670,0.933670,0.100000
1032.578125,0.768870,0.768870,0.100000
1032.593750,0.542785,0.542785,0.100000
1032.609375,0.306949,0.306949,0.100000
1032.625000,0.115115,0.115115,0.100000
1032.640625,0.011009,0.011009,0.100000
1032.656250,0.000000,0.000000,0.100000
1032.671875,0.000000,0.000000,0.100000
1032.687500,0.000000,0.000000,0.100000
1032.703125,0.000000,0.000000,0.100000
1032.718750,0.000000,0.000000,0.100000
1032.734375,0.000000,0.000000,0.100000
1032.750000,0.000000,0.000000,0.100000
1032.765625,0.000000,0.000000,0.100000
1032.781250,0.000000,0.000000,0.100000
1032.796875,0.000000,0.000000,0.100000
1032.812500,0.000000,0.000000,0.100000
1032.828125,0.000000,0.000000,0.100000
1032.843750,0.000000,0.000000,0.100000
1032.859375,0.000000,0.000000,0.100000
1032.875000,0.000000,0.000000,0.100000
1032.890625,0.000000,0.000000,0.100000
1032.906250,0.000000,0.000000,0.100000
1032.921875,0.000000,0.000000,0.100000
1032.937500,0.000000,0.000000,0.100000
1032.953125,0.000000,0.000000,0.100000
1032.968750,0.000000,0.000000,0.100000
1032.984375,0.000000,0.000000,0.100000
1033.000000,0.000000,0.000000,0.100000
1033.015625,0.000000,0.000000,0.100000
1033.031250,0.000000,0.000000,0.100000
1033.046875,0.000000,0.000000,0.100000
1033.062500,0.000000,0.000000,0.100000
1033.078125,0.000000,0.000000,0.100000
1033.093750,0.000000,0.000000,0.100000
1033.109375,0.000000,0.000000,0.100000
1033.125000,0.000000,0.000000,0.100000
1033.140625,0.000000,0.000000,0.100000
1033.156250,0.000000,0.000000,0.100000
1033.171875,0.000000,0.000000,0.100000
1033.187500,0.000000,0.000000,0.100000
1033.203125,0.000000,0.000000,0.100000
1033.218750,0.000000,0.000000,0.100000
1033.234375,0.000000,0.000000,0.100000
1033.250000,0.000000,0.000000,0.100000
1033.265625,0.012417,0.012417,0.100000
1033.281250,0.119324,0.119324,0.100000
1033.296875,0.313000,0.313000,0.100000
1033.312500,0.549300,0.549300,0.100000
1033.328125,0.774363,0.774363,0.100000
1033.343750,0.936889,0.936889,0.100000
1033.359375,0.999834,0.999834,0.100000
1033.375000,0.948850,0.948850,0.100000
1033.390625,0.795558,0.795558,0.100000
1033.406250,0.574899,0.574899,0.100000
1033.421875,0.337168,0.337168,0.100000
1033.437500,0.136552,0.136552,0.100000
1033.453125,0.018777,0.018777,0.100000
1033.468750,0.000000,0.000000,0.100000
1033.484375,0.000000,0.000000,0.100000
1033.500000,0.000000,0.000000,0.100000
1033.515625,0.000000,0.000000,0.100000
1033.531250,0.000000,0.000000,0.100000
1033.546875,0.000000,0.000000,0.100000
1033.562500,0.000000,0.000000,0.100000
1033.578125,0.000000,0.000000,0.100000
1033.593750,0.000000,0.000000,0.100000
1033.609375,0.000000,0.000000,0.100000
1033.625000,0.000000,0.000000,0.100000
1033.640625,0.000000,0.000000,0.100000
1033.656250,0.000000,0.000000,0.100000
1033.671875,0.000000,0.000000,0.100000
1033.687500,0.000000,0.000000,0.100000
1033.703125,0.000000,0.000000,0.100000
1033.718750,0.000000,0.000000,0.100000
1033.734375,0.000000,0.000000,0.100000
1033.750000,0.000000,0.000000,0.100000
1033.765625,0.000000,0.000000,0.100000
1033.781250,0.000000,0.000000,0.100000
1033.796875,0.000000,0.000000,0.100000
1033.812500,0.000000,0.000000,0.100000
1033.828125,0.000000,0.000000,0.100000
1033.843750,0.000000,0.000000,0.100000
1033.859375,0.000000,0.000000,0.100000
1033.875000,0.000000,0.000000,0.100000
1033.890625,0.000000,0.000000,0.100000
1033.906250,0.000000,0.000000,0.100000
1033.921875,0.000000,0.000000,0.100000
1033.937500,0.000000,0.000000,0.100000
1033.953125,0.000000,0.000000,0.100000
1033.968750,0.000000,0.000000,0.100000
1033.984375,0.000000,0.000000,0.100000
1034.000000,0.000000,0.000000,0.100000
1034.015625,0.000000,0.000000,0.100000
1034.031250,0.000000,0.000000,0.100000
1034.046875,0.000000,0.000000,0.100000
1034.062500,0.000000,0.000000,0.100000
1034.078125,0.006278,0.006278,0.100000
1034.093750,0.099165,0.099165,0.100000
1034.109375,0.283415,0.283415,0.100000
1034.125000,0.517033,0.517033,0.100000
1034.140625,0.746768,0.746768,0.100000
1034.156250,0.920256,0.920256,0.100000
1034.171875,0.997954,0.997954,0.100000
1034.187500,0.962152,0.962152,0.100000
1034.203125,0.821010,0.821010,0.100000
1034.218750,0.606700,0.606700,0.100000
1034.234375,0.368069,0.368069,0.100000
1034.250000,0.159509,0.159509,0.100000
1034.265625,0.028559,0.028559,0.100000
1034.281250,0.000000,0.000000,0.100000
1034.296875,0.000000,0.000000,0.100000
1034.312500,0.000000,0.000000,0.100000
1034.328125,0.000000,0.000000,0.100000
1034.343750,0.000000,0.000000,0.100000
1034.359375,0.000000,0.000000,0.100000
1034.375000,0.000000,0.000000,0.100000
1034.390625,0.000000,0.000000,0.100000
1034.406250,0.000000,0.000000,0.100000
1034.421875,0.000000,0.000000,0.100000
1034.437500,0.000000,0.000000,0.100000
1034.453125,0.000000,0.000000,0.100000
1034.468750,0.000000,0.000000,0.100000
1034.484375,0.000000,0.000000,0.100000
1034.500000,0.000000,0.000000,0.100000
1034.515625,0.000000,0.000000,0.100000
1034.531250,0.000000,0.000000,0.100000
1034.546875,0.000000,0.000000,0.100000
1034.562500,0.000000,0.000000,0.100000
1034.578125,0.000000,0.000000,0.100000
1034.593750,0.000000,0.000000,0.100000
1034.609375,0.000000,0.000000,0.100000
1034.625000,0.000000,0.000000,0.100000
1034.640625,0.000000,0.000000,0.100000
1034.656250,0.000000,0.000000,0.100000
1034.671875,0.000000,0.000000,0.100000
1034.687500,0.000000,0.000000,0.100000
1034.703125,0.000000,0.000000,0.100000
1034.718750,0.000000,0.000000,0.100000
1034.734375,0.000000,0.000000,0.100000
1034.750000,0.000000,0.000000,0.100000
1034.765625,0.000000,0.000000,0.100000
1034.781250,0.000000,0.000000,0.100000
1034.796875,0.000000,0.000000,0.100000
1034.812500,0.000000,0.000000,0.100000
1034.828125,0.000000,0.000000,0.100000
1034.843750,0.000000,0.000000,0.100000
1034.859375,0.000000,0.000000,0.100000
1034.875000,0.000000,0.000000,0.100000
1034.890625,0.002205,0.002205,0.100000
1034.906250,0.080682,0.080682,0.100000
1034.921875,0.254736,0.254736,0.100000
1034.937500,0.484694,0.484694,0.100000
1034.953125,0.718140,0.718140,0.100000
1034.968750,0.901865,0.901865,0.100000
1034.984375,0.993992,0.993992,0.100000
1035.000000,0.973521,0.973521,0.100000
1035.015625,0.845120,0.845120,0.100000
1035.031250,0.638054,0.638054,0.100000
1035.046875,0.399521,0.399521,0.100000
1035.062500,0.183890,0.183890,0.100000
1035.078125,0.040312,0.040312,0.100000
1035.093750,0.000000,0.000000,0.100000
1035.109375,0.000000,0.000000,0.100000
1035.125000,0.000000,0.000000,0.100000
1035.140625,0.000000,0.000000,0.100000
1035.156250,0.000000,0.000000,0.100000
1035.171875,0.000000,0.000000,0.100000
1035.187500,0.000000,0.000000,0.100000
1035.203125,0.000000,0.000000,0.100000
1035.218750,0.000000,0.000000,0.100000
1035.234375,0.000000,0.000000,0.100000
1035.250000,0.000000,0.000000,0.100000
1035.265625,0.000000,0.000000,0.100000
1035.281250,0.000000,0.000000,0.100000
1035.296875,0.000000,0.000000,0.100000
1035.312500,0.000000,0.000000,0.100000
1035.328125,0.000000,0.000000,0.100000
1035.343750,0.000000,0.000000,0.100000
1035.359375,0.000000,0.000000,0.100000
1035.375000,0.000000,0.000000,0.100000
1035.390625,0.000000,0.000000,0.100000
1035.406250,0.000000,0.000000,0.100000
1035.421875,0.000000,0.000000,0.100000
1035.437500,0.000000,0.000000,0.100000
1035.453125,0.000000,0.000000,0.100000
1035.468750,0.000000,0.000000,0.100000
1035.484375,0.000000,0.000000,0.100000
1035.500000,0.000000,0.000000,0.100000
1035.515625,0.000000,0.000000,0.100000
1035.531250,0.000000,0.000000,0.100000
1035.546875,0.000000,0.000000,0.100000
1035.562500,0.000000,0.000000,0.100000
1035.578125,0.000000,0.000000,0.100000
1035.593750,0.000000,0.000000,0.100000
1035.609375,0.000000,0.000000,0.100000
1035.625000,0.000000,0.000000,0.100000
1035.640625,0.000000,0.000000,0.100000
1035.656250,0.000000,0.000000,0.100000
1035.671875,0.000000,0.000000,0.100000
1035.687500,0.000000,0.000000,0.100000
1035.703125,0.000214,0.000214,0.100000
1035.718750,0.063954,0.063954,0.100000
1035.734375,0.227083,0.227083,0.100000
1035.750000,0.452419,0.452419,0.100000
1035.765625,0.688601,0.688601,0.100000
1035.781250,0.881794,0.881794,0.100000
1035.796875,0.987963,0.987963,0.100000
1035.812500,0.982910,0.982910,0.100000
1035.828125,0.867785,0.867785,0.100000
1035.843750,0.668830,0.668830,0.100000
1035.859375,0.431393,0.431393,0.100000
1035.875000,0.209594,0.209594,0.100000
1035.890625,0.053988,0.053988,0.100000
1035.906250,0.000000,0.000000,0.100000
1035.921875,0.000000,0.000000,0.100000
1035.937500,0.000000,0.000000,0.100000
1035.953125,0.000000,0.000000,0.100000
1035.968750,0.000000,0.000000,0.100000
1035.984375,0.000000,0.000000,0.100000
1036.000000,0.000000,0.000000,0.100000
1036.015625,0.000000,0.000000,0.100000
1036.031250,0.000000,0.000000,0.100000
1036.046875,0.000000,0.000000,0.100000
1036.062500,0.000000,0.000000,0.100000
1036.078125,0.000000,0.000000,0.100000
1036.093750,0.000000,0.000000,0.100000
1036.109375,0.000000,0.000000,0.100000
1036.125000,0.000000,0.000000,0.100000
1036.140625,0.000000,0.000000,0.100000
1036.156250,0.000000,0.000000,0.100000
1036.171875,0.000000,0.000000,0.100000
1036.187500,0.000000,0.000000,0.100000
1036.203125,0.000000,0.000000,0.100000
1036.218750,0.000000,0.000000,0.100000
1036.234375,0.000000,0.000000,0.100000
1036.250000,0.000000,0.000000,0.100000
1036.265625,0.000000,0.000000,0.100000
1036.281250,0.000000,0.000000,0.100000
1036.296875,0.000000,0.000000,0.100000
1036.312500,0.000000,0.000000,0.100000
1036.328125,0.000000,0.000000,0.100000
1036.343750,0.000000,0.000000,0.100000
1036.359375,0.000000,0.000000,0.100000
1036.375000,0.000000,0.000000,0.100000
1036.390625,0.000000,0.000000,0.100000
1036.406250,0.000000,0.000000,0.100000
1036.421875,0.000000,0.000000,0.100000
1036.437500,0.000000,0.000000,0.100000
1036.453125,0.000000,0.000000,0.100000
1036.468750,0.000000,0.000000,0.100000
1036.484375,0.000000,0.000000,0.100000
1036.500000,0.000000,0.000000,0.100000
1036.515625,0.000000,0.000000,0.100000
1036.531250,0.049050,0.049050,0.100000
1036.546875,0.200572,0.200572,0.100000
1036.562500,0.420344,0.420344,0.100000
1036.578125,0.658272,0.658272,0.100000
1036.593750,0.860125,0.860125,0.100000
1036.609375,0.979893,0.979893,0.100000
1036.625000,0.990278,0.990278,0.100000
1036.640625,0.888912,0.888912,0.100000
1036.656250,0.698901,0.698901,0.100000
1036.671875,0.463553,0.463553,0.100000
1036.687500,0.236513,0.236513,0.100000
1036.703125,0.069530,0.069530,0.100000
1036.718750,0.000666,0.000666,0.100000
1036.734375,0.000000,0.000000,0.100000
1036.750000,0.000000,0.000000,0.100000
1036.765625,0.000000,0.000000,0.100000
1036.781250,0.000000,0.000000,0.100000
1036.796875,0.000000,0.000000,0.100000
1036.812500,0.000000,0.000000,0.100000
1036.828125,0.000000,0.000000,0.100000
1036.843750,0.000000,0.000000,0.100000
1036.859375,0.000000,0.000000,0.100000
1036.875000,0.000000,0.000000,0.100000
1036.890625,0.000000,0.000000,0.100000
1036.906250,0.000000,0.000000,0.100000
1036.921875,0.000000,0.000000,0.100000
1036.937500,0.000000,0.000000,0.100000
1036.953125,0.000000,0.000000,0.100000
1036.968750,0.000000,0.000000,0.100000
1036.984375,0.000000,0.000000,0.100000
1037.000000,0.000000,0.000000,0.100000
1037.015625,0.000000,0.000000,0.100000
1037.031250,0.000000,0.000000,0.100000
1037.046875,0.000000,0.000000,0.100000
1037.062500,0.000000,0.000000,0.100000
1037.078125,0.000000,0.000000,0.100000
1037.093750,0.000000,0.000000,0.100000
1037.109375,0.000000,0.000000,0.100000
1037.125000,0.000000,0.000000,0.100000
1037.140625,0.000000,0.000000,0.100000
1037.156250,0.000000,0.000000,0.100000
1037.171875,0.000000,0.000000,0.100000
1037.187500,0.000000,0.000000,0.100000
1037.203125,0.000000,0.000000,0.100000
1037.218750,0.000000,0.000000,0.100000
1037.234375,0.000000,0.000000,0.100000
1037.250000,0.000000,0.000000,0.100000
1037.265625,0.000000,0.000000,0.100000
1037.281250,0.000000,0.000000,0.100000
1037.296875,0.000000,0.000000,0.100000
1037.312500,0.000000,0.000000,0.100000
1037.328125,0.000000,0.000000,0.100000
1037.343750,0.036032,0.036032,0.100000
1037.359375,0.175313,0.175313,0.100000
1037.375000,0.388601,0.388601,0.100000
1037.390625,0.627281,0.627281,0.100000
1037.406250,0.836949,0.836949,0.100000
1037.421875,0.969816,0.969816,0.100000
1037.437500,0.995595,0.995595,0.100000
1037.453125,0.908413,0.908413,0.100000
1037.468750,0.728139,0.728139,0.100000
1037.484375,0.495865,0.495865,0.100000
1037.500000,0.264534,0.264534,0.100000
1037.515625,0.086873,0.086873,0.100000
1037.531250,0.003377,0.003377,0.100000
1037.546875,0.000000,0.000000,0.100000
1037.562500,0.000000,0.000000,0.100000
1037.578125,0.000000,0.000000,0.100000
1037.593750,0.000000,0.000000,0.100000
1037.609375,0.000000,0.000000,0.100000
1037.625000,0.000000,0.000000,0.100000
1037.640625,0.000000,0.000000,0.100000
1037.656250,0.000000,0.000000,0.100000
1037.671875,0.000000,0.000000,0.100000
1037.687500,0.000000,0.000000,0.100000
1037.703125,0.000000,0.000000,0.100000
1037.718750,0.000000,0.000000,0.100000
1037.734375,0.000000,0.000000,0.100000
1037.750000,0.000000,0.000000,0.100000
1037.765625,0.000000,0.000000,0.100000
1037.781250,0.000000,0.000000,0.100000
1037.796875,0.000000,0.000000,0.100000
1037.812500,0.000000,0.000000,0.100000
1037.828125,0.000000,0.000000,0.100000
1037.843750,0.000000,0.000000,0.100000
1037.859375,0.000000,0.000000,0.100000
1037.875000,0.000000,0.000000,0.100000
1037.890625,0.000000,0.000000,0.100000
1037.906250,0.000000,0.000000,0.100000
1037.921875,0.000000,0.000000,0.100000
1037.937500,0.000000,0.000000,0.100000
1037.953125,0.000000,0.000000,0.100000
1037.968750,0.000000,0.000000,0.100000
1037.984375,0.000000,0.000000,0.100000
1038.000000,0.000000,0.000000,0.100000
1038.015625,0.000000,0.000000,0.100000
1038.031250,0.000000,0.000000,0.100000
1038.046875,0.000000,0.000000,0.100000
1038.062500,0.000000,0.000000,0.100000
1038.078125,0.000000,0.000000,0.100000
1038.093750,0.000000,0.000000,0.100000
1038.109375,0.000000,0.000000,0.100000
1038.125000,0.000000,0.000000,0.100000
1038.140625,0.000000,0.000000,0.100000
1038.156250,0.024954,0.024954,0.100000
1038.171875,0.151412,0.151412,0.100000
1038.187500,0.357325,0.357325,0.100000
1038.203125,0.595758,0.595758,0.100000
1038.218750,0.812364,0.812364,0.100000
1038.234375,0.957773,0.957773,0.100000
1038.250000,0.998840,0.998840,0.100000
1038.265625,0.926204,0.926204,0.100000
1038.281250,0.756423,0.756423,0.100000
1038.296875,0.528194,0.528194,0.100000
1038.312500,0.293539,0.293539,0.100000
1038.328125,0.105944,0.105944,0.100000
1038.343750,0.008166,0.008166,0.100000
1038.359375,0.000000,0.000000,0.100000
1038.375000,0.000000,0.000000,0.100000
1038.390625,0.000000,0.000000,0.100000
1038.406250,0.000000,0.000000,0.100000
1038.421875,0.000000,0.000000,0.100000
1038.437500,0.000000,0.000000,0.100000
1038.453125,0.000000,0.000000,0.100000
1038.468750,0.000000,0.000000,0.100000
1038.484375,0.000000,0.000000,0.100000
1038.500000,0.000000,0.000000,0.100000
1038.515625,0.000000,0.000000,0.100000
1038.531250,0.000000,0.000000,0.100000
1038.546875,0.000000,0.000000,0.100000
1038.562500,0.000000,0.000000,0.100000
1038.578125,0.000000,0.000000,0.100000
1038.593750,0.000000,0.000000,0.100000
1038.609375,0.000000,0.000000,0.100000
1038.625000,0.000000,0.000000,0.100000
1038.640625,0.000000,0.000000,0.100000
1038.656250,0.000000,0.000000,0.100000
1038.671875,0.000000,0.000000,0.100000
1038.687500,0.000000,0.000000,0.100000
1038.703125,0.000000,0.000000,0.100000
1038.718750,0.000000,0.000000,0.100000
1038.734375,0.000000,0.000000,0.100000
1038.750000,0.000000,0.000000,0.100000
1038.765625,0.000000,0.000000,0.100000
1038.781250,0.000000,0.000000,0.100000
1038.796875,0.000000,0.000000,0.100000
1038.812500,0.000000,0.000000,0.100000
1038.828125,0.000000,0.000000,0.100000
1038.843750,0.000000,0.000000,0.100000
1038.859375,0.000000,0.000000,0.100000
1038.875000,0.000000,0.000000,0.100000
1038.890625,0.000000,0.000000,0.100000
1038.906250,0.000000,0.000000,0.100000
1038.921875,0.000000,0.000000,0.100000
1038.937500,0.000000,0.000000,0.100000
1038.953125,0.000000,0.000000,0.100000
1038.968750,0.015865,0.015865,0.100000
1038.984375,0.128970,0.128970,0.100000
1039.000000,0.326645,0.326645,0.100000
1039.015625,0.563834,0.563834,0.100000
1039.031250,0.786473,0.786473,0.100000
1039.046875,0.943815,0.943815,0.100000
1039.062500,0.999997,0.999997,0.100000
1039.078125,0.942213,0.942213,0.100000
1039.093750,0.783634,0.783634,0.100000
1039.109375,0.560406,0.560406,0.100000
1039.125000,0.323409,0.323409,0.100000
1039.140625,0.126663,0.126663,0.100000
1039.156250,0.015013,0.015013,0.100000
1039.171875,0.000000,0.000000,0.100000
1039.187500,0.000000,0.000000,0.100000
1039.203125,0.000000,0.000000,0.100000
1039.218750,0.000000,0.000000,0.100000
1039.234375,0.000000,0.000000,0.100000
1039.250000,0.000000,0.000000,0.100000
1039.265625,0.000000,0.000000,0.100000
1039.281250,0.000000,0.000000,0.100000
1039.296875,0.000000,0.000000,0.100000
1039.312500,0.000000,0.000000,0.100000
1039.328125,0.000000,0.000000,0.100000
1039.343750,0.000000,0.000000,0.100000
1039.359375,0.000000,0.000000,0.100000
1039.375000,0.000000,0.000000,0.100000
1039.390625,0.000000,0.000000,0.100000
1039.406250,0.000000,0.000000,0.100000
1039.421875,0.000000,0.000000,0.100000
1039.437500,0.000000,0.000000,0.100000
1039.453125,0.000000,0.000000,0.100000
1039.468750,0.000000,0.000000,0.100000
1039.484375,0.000000,0.000000,0.100000
1039.500000,0.000000,0.000000,0.100000
1039.515625,0.000000,0.000000,0.100000
1039.531250,0.000000,0.000000,0.100000
1039.546875,0.000000,0.000000,0.100000
1039.562500,0.000000,0.000000,0.100000
1039.578125,0.000000,0.000000,0.100000
1039.593750,0.000000,0.000000,0.100000
1039.609375,0.000000,0.000000,0.100000
1039.625000,0.000000,0.000000,0.100000
1039.640625,0.000000,0.000000,0.100000
1039.656250,0.000000,0.000000,0.100000
1039.671875,0.000000,0.000000,0.100000
1039.687500,0.000000,0.000000,0.100000
1039.703125,0.000000,0.000000,0.100000
1039.718750,0.000000,0.000000,0.100000
1039.734375,0.000000,0.000000,0.100000
1039.750000,0.000000,0.000000,0.100000
1039.765625,0.000000,0.000000,0.100000
1039.781250,0.008800,0.008800,0.100000
1039.796875,0.108080,0.108080,0.100000
1039.812500,0.296691,0.296691,0.100000
1039.828125,0.531643,0.531643,0.100000
1039.843750,0.759383,0.759383,0.100000
1039.859375,0.928001,0.928001,0.100000
1039.875000,0.999063,0.999063,0.100000
1039.890625,0.956372,0.956372,0.100000
1039.906250,0.809659,0.809659,0.100000
1039.921875,0.592365,0.592365,0.100000
1039.937500,0.354017,0.354017,0.100000
1039.953125,0.148944,0.148944,0.100000
1039.968750,0.023888,0.023888,0.100000
1039.984375,0.000000,0.000000,0.100000
1040.000000,0.000000,0.000000,0.100000
1040.015625,0.000000,0.000000,0.100000
1040.031250,0.000000,0.000000,0.100000
1040.046875,0.000000,0.000000,0.100000
1040.062500,0.000000,0.000000,0.100000
1040.078125,0.000000,0.000000,0.100000
1040.093750,0.000000,0.000000,0.100000
1040.109375,0.000000,0.000000,0.100000
1040.125000,0.000000,0.000000,0.100000
1040.140625,0.000000,0.000000,0.100000
1040.156250,0.000000,0.000000,0.100000
1040.171875,0.000000,0.000000,0.100000
1040.187500,0.000000,0.000000,0.100000
1040.203125,0.000000,0.000000,0.100000
1040.218750,0.000000,0.000000,0.100000
1040.234375,0.000000,0.000000,0.100000
1040.250000,0.000000,0.000000,0.100000
1040.265625,0.000000,0.000000,0.100000
1040.281250,0.000000,0.000000,0.100000
1040.296875,0.000000,0.000000,0.100000
1040.312500,0.000000,0.000000,0.100000
1040.328125,0.000000,0.000000,0.100000
1040.343750,0.000000,0.000000,0.100000
1040.359375,0.000000,0.000000,0.100000
1040.375000,0.000000,0.000000,0.100000
1040.390625,0.000000,0.000000,0.100000
1040.406250,0.000000,0.000000,0.100000
1040.421875,0.000000,0.000000,0.100000
1040.437500,0.000000,0.000000,0.100000
1040.453125,0.000000,0.000000,0.100000
1040.468750,0.000000,0.000000,0.100000
1040.484375,0.000000,0.000000,0.100000
1040.500000,0.000000,0.000000,0.100000
1040.515625,0.000000,0.000000,0.100000
1040.531250,0.000000,0.000000,0.100000
1040.546875,0.000000,0.000000,0.100000
1040.562500,0.000000,0.000000,0.100000
1040.578125,0.000000,0.000000,0.100000
1040.593750,0.003790,0.003790,0.100000
1040.609375,0.088829,0.088829,0.100000
1040.625000,0.267587,0.267587,0.100000
1040.640625,0.499320,0.499320,0.100000
1040.656250,0.731208,0.731208,0.100000
1040.671875,0.910396,0.910396,0.100000
1040.687500,0.996041,0.996041,0.100000
1040.703125,0.968622,0.968622,0.100000
1040.718750,0.834389,0.834389,0.100000
1040.734375,0.623937,0.623937,0.100000
1040.750000,0.385236,0.385236,0.100000
1040.765625,0.172693,0.172693,0.100000
1040.781250,0.034755,0.034755,0.100000
1040.796875,0.000000,0.000000,0.100000
1040.812500,0.000000,0.000000,0.100000
1040.828125,0.000000,0.000000,0.100000
1040.843750,0.000000,0.000000,0.100000
1040.859375,0.000000,0.000000,0.100000
1040.875000,0.000000,0.000000,0.100000
1040.890625,0.000000,0.000000,0.100000
1040.906250,0.000000,0.000000,0.100000
1040.921875,0.000000,0.000000,0.100000
1040.937500,0.000000,0.000000,0.100000
1040.953125,0.000000,0.000000,0.100000
1040.968750,0.000000,0.000000,0.100000
1040.984375,0.000000,0.000000,0.100000
1041.000000,0.000000,0.000000,0.100000
1041.015625,0.000000,0.000000,0.100000
1041.031250,0.000000,0.000000,0.100000
1041.046875,0.000000,0.000000,0.100000
1041.062500,0.000000,0.000000,0.100000
1041.078125,0.000000,0.000000,0.100000
1041.093750,0.000000,0.000000,0.100000
1041.109375,0.000000,0.000000,0.100000
1041.125000,0.000000,0.000000,0.100000
1041.140625,0.000000,0.000000,0.100000
1041.156250,0.000000,0.000000,0.100000
1041.171875,0.000000,0.000000,0.100000
1041.187500,0.000000,0.000000,0.100000
1041.203125,0.000000,0.000000,0.100000
1041.218750,0.000000,0.000000,0.100000
1041.234375,0.000000,0.000000,0.100000
1041.250000,0.000000,0.000000,0.100000
1041.265625,0.000000,0.000000,0.100000
1041.281250,0.000000,0.000000,0.100000
1041.296875,0.000000,0.000000,0.100000
1041.312500,0.000000,0.000000,0.100000
1041.328125,0.000000,0.000000,0.100000
1041.343750,0.000000,0.000000,0.100000
1041.359375,0.000000,0.000000,0.100000
1041.375000,0.000000,0.000000,0.100000
1041.390625,0.000000,0.000000,0.100000
1041.406250,0.000856,0.000856,0.100000
1041.421875,0.071298,0.071298,0.100000
1041.437500,0.239455,0.239455,0.100000
1041.453125,0.467000,0.467000,0.100000
1041.468750,0.702066,0.702066,0.100000
1041.484375,0.891075,0.891075,0.100000
1041.500000,0.990944,0.990944,0.100000
1041.515625,0.978912,0.978912,0.100000
1041.531250,0.857719,0.857719,0.100000
1041.546875,0.654991,0.654991,0.100000
1041.562500,0.416935,0.416935,0.100000
1041.578125,0.197812,0.197812,0.100000
1041.593750,0.047568,0.047568,0.100000
1041.609375,0.000000,0.000000,0.100000
1041.625000,0.000000,0.000000,0.100000
1041.640625,0.000000,0.000000,0.100000
1041.656250,0.000000,0.000000,0.100000
1041.671875,0.000000,0.000000,0.100000
1041.687500,0.000000,0.000000,0.100000
1041.703125,0.000000,0.000000,0.100000
1041.718750,0.000000,0.000000,0.100000
1041.734375,0.000000,0.000000,0.100000
1041.750000,0.000000,0.000000,0.100000
1041.765625,0.000000,0.000000,0.100000
1041.781250,0.000000,0.000000,0.100000
1041.796875,0.000000,0.000000,0.100000
1041.812500,0.000000,0.000000,0.100000
1041.828125,0.000000,0.000000,0.100000
1041.843750,0.000000,0.000000,0.100000
1041.859375,0.000000,0.000000,0.100000
1041.875000,0.000000,0.000000,0.100000
1041.890625,0.000000,0.000000,0.100000
1041.906250,0.000000,0.000000,0.100000
1041.921875,0.000000,0.000000,0.100000
1041.937500,0.000000,0.000000,0.100000
1041.953125,0.000000,0.000000,0.100000
1041.968750,0.000000,0.000000,0.100000
1041.984375,0.000000,0.000000,0.100000
1042.000000,0.000000,0.000000,0.100000
1042.015625,0.000000,0.000000,0.100000
1042.031250,0.000000,0.000000,0.100000
1042.046875,0.000000,0.000000,0.100000
1042.062500,0.000000,0.000000,0.100000
1042.078125,0.000000,0.000000,0.100000
1042.093750,0.000000,0.000000,0.100000
1042.109375,0.000000,0.000000,0.100000
1042.125000,0.000000,0.000000,0.100000
1042.140625,0.000000,0.000000,0.100000
1042.156250,0.000000,0.000000,0.100000
1042.171875,0.000000,0.000000,0.100000
1042.187500,0.000000,0.000000,0.100000
1042.203125,0.000000,0.000000,0.100000
1042.218750,0.000000,0.000000,0.100000
1042.234375,0.055560,0.055560,0.100000
1042.250000,0.212414,0.212414,0.100000
1042.265625,0.434817,0.434817,0.100000
1042.281250,0.672078,0.672078,0.100000
1042.296875,0.870117,0.870117,0.100000
1042.312500,0.983794,0.983794,0.100000
1042.328125,0.987198,0.987198,0.100000
1042.343750,0.879553,0.879553,0.100000
1042.359375,0.685396,0.685396,0.100000
1042.375000,0.448981,0.448981,0.100000
1042.390625,0.224195,0.224195,0.100000
1042.406250,0.062274,0.062274,0.100000
1042.421875,0.000125,0.000125,0.100000
1042.437500,0.000000,0.000000,0.100000
1042.453125,0.000000,0.000000,0.100000
1042.468750,0.000000,0.000000,0.100000
1042.484375,0.000000,0.000000,0.100000
1042.500000,0.000000,0.000000,0.100000
1042.515625,0.000000,0.000000,0.100000
1042.531250,0.000000,0.000000,0.100000
1042.546875,0.000000,0.000000,0.100000
1042.562500,0.000000,0.000000,0.100000
1042.578125,0.000000,0.000000,0.100000
1042.593750,0.000000,0.000000,0.100000
1042.609375,0.000000,0.000000,0.100000
1042.625000,0.000000,0.000000,0.100000
1042.640625,0.000000,0.000000,0.100000
1042.656250,0.000000,0.000000,0.100000
1042.671875,0.000000,0.000000,0.100000
1042.687500,0.000000,0.000000,0.100000
1042.703125,0.000000,0.000000,0.100000
1042.718750,0.000000,0.000000,0.100000
1042.734375,0.000000,0.000000,0.100000
1042.750000,0.000000,0.000000,0.100000
1042.765625,0.000000,0.000000,0.100000
1042.781250,0.000000,0.000000,0.100000
1042.796875,0.000000,0.000000,0.100000
1042.812500,0.000000,0.000000,0.100000
1042.828125,0.000000,0.000000,0.100000
1042.843750,0.000000,0.000000,0.100000
1042.859375,0.000000,0.000000,0.100000
1042.875000,0.000000,0.000000,0.100000
1042.890625,0.000000,0.000000,0.100000
1042.906250,0.000000,0.000000,0.100000
1042.921875,0.000000,0.000000,0.100000
1042.937500,0.000000,0.000000,0.100000
1042.953125,0.000000,0.000000,0.100000
1042.968750,0.000000,0.000000,0.100000
1042.984375,0.000000,0.000000,0.100000
1043.000000,0.000000,0.000000,0.100000
1043.015625,0.000000,0.000000,0.100000
1043.031250,0.000000,0.000000,0.100000
1043.046875,0.041682,0.041682,0.100000
1043.062500,0.186575,0.186575,0.100000
1043.078125,0.402908,0.402908,0.100000
1043.093750,0.641371,0.641371,0.100000
1043.109375,0.847611,0.847611,0.100000
1043.125000,0.974620,0.974620,0.100000
1043.140625,0.993446,0.993446,0.100000
1043.156250,0.899800,0.899800,0.100000
1043.171875,0.715026,0.715026,0.100000
1043.187500,0.481241,0.481241,0.100000
1043.203125,0.251731,0.251731,0.100000
1043.218750,0.078810,0.078810,0.100000
1043.234375,0.001893,0.001893,0.100000
1043.250000,0.000000,0.000000,0.100000
1043.265625,0.000000,0.000000,0.100000
1043.281250,0.000000,0.000000,0.100000
1043.296875,0.000000,0.000000,0.100000
1043.312500,0.000000,0.000000,0.100000
1043.328125,0.000000,0.000000,0.100000
1043.343750,0.000000,0.000000,0.100000
1043.359375,0.000000,0.000000,0.100000
1043.375000,0.000000,0.000000,0.100000
1043.390625,0.000000,0.000000,0.100000
1043.406250,0.000000,0.000000,0.100000
1043.421875,0.000000,0.000000,0.100000
1043.437500,0.000000,0.000000,0.100000
1043.453125,0.000000,0.000000,0.100000
1043.468750,0.000000,0.000000,0.100000
1043.484375,0.000000,0.000000,0.100000
1043.500000,0.000000,0.000000,0.100000
1043.515625,0.000000,0.000000,0.100000
1043.531250,0.000000,0.000000,0.100000
1043.546875,0.000000,0.000000,0.100000
1043.562500,0.000000,0.000000,0.100000
1043.578125,0.000000,0.000000,0.100000
1043.593750,0.000000,0.000000,0.100000
1043.609375,0.000000,0.000000,0.100000
1043.625000,0.000000,0.000000,0.100000
1043.640625,0.000000,0.000000,0.100000
1043.656250,0.000000,0.000000,0.100000
1043.671875,0.000000,0.000000,0.100000
1043.687500,0.000000,0.000000,0.100000
1043.703125,0.000000,0.000000,0.100000
1043.718750,0.000000,0.000000,0.100000
1043.734375,0.000000,0.000000,0.100000
1043.750000,0.000000,0.000000,0.100000
1043.765625,0.000000,0.000000,0.100000
1043.781250,0.000000,0.000000,0.100000
1043.796875,0.000000,0.000000,0.100000
1043.812500,0.000000,0.000000,0.100000
1043.828125,0.000000,0.000000,0.100000
1043.843750,0.000000,0.000000,0.100000
1043.859375,0.029721,0.029721,0.100000
1043.875000,0.162047,0.162047,0.100000
1043.890625,0.371404,0.371404,0.100000
1043.906250,0.610073,0.610073,0.100000
1043.921875,0.823652,0.823652,0.100000
1043.937500,0.963460,0.963460,0.100000
1043.953125,0.997630,0.997630,0.100000
1043.968750,0.918374,0.918374,0.100000
1043.984375,0.743757,0.743757,0.100000
1044.000000,0.513579,0.513579,0.100000
1044.015625,0.280306,0.280306,0.100000
1044.031250,0.097109,0.097109,0.100000
1044.046875,0.005744,0.005744,0.100000
1044.062500,0.000000,0.000000,0.100000
1044.078125,0.000000,0.000000,0.100000
1044.093750,0.000000,0.000000,0.100000
1044.109375,0.000000,0.000000,0.100000
1044.125000,0.000000,0.000000,0.100000
1044.140625,0.000000,0.000000,0.100000
1044.156250,0.000000,0.000000,0.100000
1044.171875,0.000000,0.000000,0.100000
1044.187500,0.000000,0.000000,0.100000
1044.203125,0.000000,0.000000,0.100000
1044.218750,0.000000,0.000000,0.100000
1044.234375,0.000000,0.000000,0.100000
1044.250000,0.000000,0.000000,0.100000
1044.265625,0.000000,0.000000,0.100000
1044.281250,0.000000,0.000000,0.100000
1044.296875,0.000000,0.000000,0.100000
1044.312500,0.000000,0.000000,0.100000
1044.328125,0.000000,0.000000,0.100000
1044.343750,0.000000,0.000000,0.100000
1044.359375,0.000000,0.000000,0.100000
1044.375000,0.000000,0.000000,0.100000
1044.390625,0.000000,0.000000,0.100000
1044.406250,0.000000,0.000000,0.100000
1044.421875,0.000000,0.000000,0.100000
1044.437500,0.000000,0.000000,0.100000
1044.453125,0.000000,0.000000,0.100000
1044.468750,0.000000,0.000000,0.100000
1044.484375,0.000000,0.000000,0.100000
1044.500000,0.000000,0.000000,0.100000
1044.515625,0.000000,0.000000,0.100000
1044.531250,0.000000,0.000000,0.100000
1044.546875,0.000000,0.000000,0.100000
1044.562500,0.000000,0.000000,0.100000
1044.578125,0.000000,0.000000,0.100000
1044.593750,0.000000,0.000000,0.100000
1044.609375,0.000000,0.000000,0.100000
1044.625000,0.000000,0.000000,0.100000
1044.640625,0.000000,0.000000,0.100000
1044.656250,0.000000,0.000000,0.100000
1044.671875,0.019727,0.019727,0.100000
1044.687500,0.138933,0.138933,0.100000
1044.703125,0.340439,0.340439,0.100000
1044.718750,0.578314,0.578314,0.100000
1044.734375,0.798338,0.798338,0.100000
1044.750000,0.950361,0.950361,0.100000
1044.765625,0.999733,0.999733,0.100000
1044.781250,0.935198,0.935198,0.100000
1044.796875,0.771468,0.771468,0.100000
1044.812500,0.545861,0.545861,0.100000
1044.828125,0.309801,0.309801,0.100000
1044.843750,0.117093,0.117093,0.100000
1044.859375,0.011663,0.011663,0.100000
1044.875000,0.000000,0.000000,0.100000
1044.890625,0.000000,0.000000,0.100000
1044.906250,0.000000,0.000000,0.100000
1044.921875,0.000000,0.000000,0.100000
1044.937500,0.000000,0.000000,0.100000
1044.953125,0.000000,0.000000,0.100000
1044.968750,0.000000,0.000000,0.100000
1044.984375,0.000000,0.000000,0.100000
1045.000000,0.000000,0.000000,0.100000
1045.015625,0.000000,0.000000,0.100000
1045.031250,0.000000,0.000000,0.100000
1045.046875,0.000000,0.000000,0.100000
1045.062500,0.000000,0.000000,0.100000
1045.078125,0.000000,0.000000,0.100000
1045.093750,0.000000,0.000000,0.100000
1045.109375,0.000000,0.000000,0.100000
1045.125000,0.000000,0.000000,0.100000
1045.140625,0.000000,0.000000,0.100000
1045.156250,0.000000,0.000000,0.100000
1045.171875,0.000000,0.000000,0.100000
1045.187500,0.000000,0.000000,0.100000
1045.203125,0.000000,0.000000,0.100000
1045.218750,0.000000,0.000000,0.100000
1045.234375,0.000000,0.000000,0.100000
1045.250000,0.000000,0.000000,0.100000
1045.265625,0.000000,0.000000,0.100000
1045.281250,0.000000,0.000000,0.100000
1045.296875,0.000000,0.000000,0.100000
1045.312500,0.000000,0.000000,0.100000
1045.328125,0.000000,0.000000,0.100000
1045.343750,0.000000,0.000000,0.100000
1045.359375,0.000000,0.000000,0.100000
1045.375000,0.000000,0.000000,0.100000
1045.390625,0.000000,0.000000,0.100000
1045.406250,0.000000,0.000000,0.100000
1045.421875,0.000000,0.000000,0.100000
1045.437500,0.000000,0.000000,0.100000
1045.453125,0.000000,0.000000,0.100000
1045.468750,0.000000,0.000000,0.100000
1045.484375,0.011742,0.011742,0.100000
1045.500000,0.117330,0.117330,0.100000
1045.515625,0.310141,0.310141,0.100000
1045.531250,0.546227,0.546227,0.100000
1045.546875,0.771776,0.771776,0.100000
1045.562500,0.935379,0.935379,0.100000
1045.578125,0.999744,0.999744,0.100000
1045.593750,0.950202,0.950202,0.100000
1045.609375,0.798043,0.798043,0.100000
1045.625000,0.577950,0.577950,0.100000
1045.640625,0.340090,0.340090,0.100000
1045.656250,0.138679,0.138679,0.100000
1045.671875,0.019625,0.019625,0.100000
1045.687500,0.000000,0.000000,0.100000
1045.703125,0.000000,0.000000,0.100000
1045.718750,0.000000,0.000000,0.100000
1045.734375,0.000000,0.000000,0.100000
1045.750000,0.000000,0.000000,0.100000
1045.765625,0.000000,0.000000,0.100000
1045.781250,0.000000,0.000000,0.100000
1045.796875,0.000000,0.000000,0.100000
1045.812500,0.000000,0.000000,0.100000
1045.828125,0.000000,0.000000,0.100000
1045.843750,0.000000,0.000000,0.100000
1045.859375,0.000000,0.000000,0.100000
1045.875000,0.000000,0.000000,0.100000
1045.890625,0.000000,0.000000,0.100000
1045.906250,0.000000,0.000000,0.100000
1045.921875,0.000000,0.000000,0.100000
1045.937500,0.000000,0.000000,0.100000
1045.953125,0.000000,0.000000,0.100000
1045.968750,0.000000,0.000000,0.100000
1045.984375,0.000000,0.000000,0.100000
1046.000000,0.000000,0.000000,0.100000
1046.015625,0.000000,0.000000,0.100000
1046.031250,0.000000,0.000000,0.100000
1046.046875,0.000000,0.000000,0.100000
1046.062500,0.000000,0.000000,0.100000
1046.078125,0.000000,0.000000,0.100000
1046.093750,0.000000,0.000000,0.100000
1046.109375,0.000000,0.000000,0.100000
1046.125000,0.000000,0.000000,0.100000
1046.140625,0.000000,0.000000,0.100000
1046.156250,0.000000,0.000000,0.100000
1046.171875,0.000000,0.000000,0.100000
1046.187500,0.000000,0.000000,0.100000
1046.203125,0.000000,0.000000,0.100000
1046.218750,0.000000,0.000000,0.100000
1046.234375,0.000000,0.000000,0.100000
1046.250000,0.000000,0.000000,0.100000
1046.265625,0.000000,0.000000,0.100000
1046.281250,0.000000,0.000000,0.100000
1046.296875,0.005800,0.005800,0.100000
1046.312500,0.097327,0.097327,0.100000
1046.328125,0.280637,0.280637,0.100000
1046.343750,0.513947,0.513947,0.100000
1046.359375,0.744078,0.744078,0.100000
1046.375000,0.918575,0.918575,0.100000
1046.390625,0.997666,0.997666,0.100000
1046.406250,0.963322,0.963322,0.100000
1046.421875,0.823371,0.823371,0.100000
1046.437500,0.609714,0.609714,0.100000
1046.453125,0.371049,0.371049,0.100000
1046.468750,0.161776,0.161776,0.100000
1046.484375,0.029596,0.029596,0.100000
1046.500000,0.000000,0.000000,0.100000
1046.515625,0.000000,0.000000,0.100000
1046.531250,0.000000,0.000000,0.100000
1046.546875,0.000000,0.000000,0.100000
1046.562500,0.000000,0.000000,0.100000
1046.578125,0.000000,0.000000,0.100000
1046.593750,0.000000,0.000000,0.100000
1046.609375,0.000000,0.000000,0.100000
1046.625000,0.000000,0.000000,0.100000
1046.640625,0.000000,0.000000,0.100000
1046.656250,0.000000,0.000000,0.100000
1046.671875,0.000000,0.000000,0.100000
1046.687500,0.000000,0.000000,0.100000
1046.703125,0.000000,0.000000,0.100000
1046.718750,0.000000,0.000000,0.100000
1046.734375,0.000000,0.000000,0.100000
1046.750000,0.000000,0.000000,0.100000
1046.765625,0.000000,0.000000,0.100000
1046.781250,0.000000,0.000000,0.100000
1046.796875,0.000000,0.000000,0.100000
1046.812500,0.000000,0.000000,0.100000
1046.828125,0.000000,0.000000,0.100000
1046.843750,0.000000,0.000000,0.100000
1046.859375,0.000000,0.000000,0.100000
1046.875000,0.000000,0.000000,0.100000
1046.890625,0.000000,0.000000,0.100000
1046.906250,0.000000,0.000000,0.100000
1046.921875,0.000000,0.000000,0.100000
1046.937500,0.000000,0.000000,0.100000
1046.953125,0.000000,0.000000,0.100000
1046.968750,0.000000,0.000000,0.100000
1046.984375,0.000000,0.000000,0.100000
1047.000000,0.000000,0.000000,0.100000
1047.015625,0.000000,0.000000,0.100000
1047.031250,0.000000,0.000000,0.100000
1047.046875,0.000000,0.000000,0.100000
1047.062500,0.000000,0.000000,0.100000
1047.078125,0.000000,0.000000,0.100000
1047.093750,0.000000,0.000000,0.100000
1047.109375,0.001925,0.001925,0.100000
1047.125000,0.079009,0.079009,0.100000
1047.140625,0.252051,0.252051,0.100000
1047.156250,0.481608,0.481608,0.100000
1047.171875,0.715358,0.715358,0.100000
1047.187500,0.900021,0.900021,0.100000
1047.203125,0.993505,0.993505,0.100000
1047.218750,0.974504,0.974504,0.100000
1047.234375,0.847347,0.847347,0.100000
1047.250000,0.641018,0.641018,0.100000
1047.265625,0.402547,0.402547,0.100000
1047.281250,0.186288,0.186288,0.100000
1047.296875,0.041535,0.041535,0.100000
1047.312500,0.000000,0.000000,0.100000
1047.328125,0.000000,0.000000,0.100000
1047.343750,0.000000,0.000000,0.100000
1047.359375,0.000000,0.000000,0.100000
1047.375000,0.000000,0.000000,0.100000
1047.390625,0.000000,0.000000,0.100000
1047.406250,0.000000,0.000000,0.100000
1047.421875,0.000000,0.000000,0.100000
1047.437500,0.000000,0.000000,0.100000
1047.453125,0.000000,0.000000,0.100000
1047.468750,0.000000,0.000000,0.100000
1047.484375,0.000000,0.000000,0.100000
1047.500000,0.000000,0.000000,0.100000
1047.515625,0.000000,0.000000,0.100000
1047.531250,0.000000,0.000000,0.100000
1047.546875,0.000000,0.000000,0.100000
1047.562500,0.000000,0.000000,0.100000
1047.578125,0.000000,0.000000,0.100000
1047.593750,0.000000,0.000000,0.100000
1047.609375,0.000000,0.000000,0.100000
1047.625000,0.000000,0.000000,0.100000
1047.640625,0.000000,0.000000,0.100000
1047.656250,0.000000,0.000000,0.100000
1047.671875,0.000000,0.000000,0.100000
1047.687500,0.000000,0.000000,0.100000
1047.703125,0.000000,0.000000,0.100000
1047.718750,0.000000,0.000000,0.100000
1047.734375,0.000000,0.000000,0.100000
1047.750000,0.000000,0.000000,0.100000
1047.765625,0.000000,0.000000,0.100000
1047.781250,0.000000,0.000000,0.100000
1047.796875,0.000000,0.000000,0.100000
1047.812500,0.000000,0.000000,0.100000
1047.828125,0.000000,0.000000,0.100000
1047.843750,0.000000,0.000000,0.100000
1047.859375,0.000000,0.000000,0.100000
1047.875000,0.000000,0.000000,0.100000
1047.890625,0.000000,0.000000,0.100000
1047.906250,0.000000,0.000000,0.100000
1047.921875,0.000133,0.000133,0.100000
1047.937500,0.062452,0.062452,0.100000
1047.953125,0.224502,0.224502,0.100000
1047.968750,0.449347,0.449347,0.100000
1047.984375,0.685738,0.685738,0.100000
1048.000000,0.879793,0.879793,0.100000
1048.015625,0.987280,0.987280,0.100000
1048.031250,0.983701,0.983701,0.100000
