timestamp,ppg_red,ppg_ir,ppg_ambient
1000.000000,0.000000,0.000000,0.100000
1000.015625,0.047370,0.047370,0.100000
1000.031250,0.180504,0.180504,0.100000
1000.046875,0.374177,0.374177,0.100000
1000.062500,0.591690,0.591690,0.100000
1000.078125,0.791830,0.791830,0.100000
1000.093750,0.936674,0.936674,0.100000
1000.109375,0.998777,0.998777,0.100000
1000.125000,0.966371,0.966371,0.100000
1000.140625,0.845598,0.845598,0.100000
1000.156250,0.659340,0.659340,0.100000
1000.171875,0.442891,0.442891,0.100000
1000.187500,0.237262,0.237262,0.100000
1000.203125,0.081418,0.081418,0.100000
1000.218750,0.004886,0.004886,0.100000
1000.234375,0.000000,0.000000,0.100000
1000.250000,0.000000,0.000000,0.100000
1000.265625,0.000000,0.000000,0.100000
1000.281250,0.000000,0.000000,0.100000
1000.296875,0.000000,0.000000,0.100000
1000.312500,0.000000,0.000000,0.100000
1000.328125,0.000000,0.000000,0.100000
1000.343750,0.000000,0.000000,0.100000
1000.359375,0.000000,0.000000,0.100000
1000.375000,0.000000,0.000000,0.100000
1000.390625,0.000000,0.000000,0.100000
1000.406250,0.000000,0.000000,0.100000
1000.421875,0.000000,0.000000,0.100000
1000.437500,0.000000,0.000000,0.100000
1000.453125,0.000000,0.000000,0.100000
1000.468750,0.000000,0.000000,0.100000
1000.484375,0.000000,0.000000,0.100000
1000.500000,0.000000,0.000000,0.100000
1000.515625,0.000000,0.000000,0.100000
1000.531250,0.000000,0.000000,0.100000
1000.546875,0.000000,0.000000,0.100000
1000.562500,0.000000,0.000000,0.100000
1000.578125,0.000000,0.000000,0.100000
1000.593750,0.000000,0.000000,0.100000
1000.609375,0.000000,0.000000,0.100000
1000.625000,0.000000,0.000000,0.100000
1000.640625,0.000000,0.000000,0.100000
1000.656250,0.000000,0.000000,0.100000
1000.671875,0.000000,0.000000,0.100000
1000.687500,0.000000,0.000000,0.100000
1000.703125,0.000000,0.000000,0.100000
1000.718750,0.000000,0.000000,0.100000
1000.734375,0.000000,0.000000,0.100000
1000.750000,0.000000,0.000000,0.100000
1000.765625,0.000000,0.000000,0.100000
1000.781250,0.000000,0.000000,0.100000
1000.796875,0.000000,0.000000,0.100000
1000.812500,0.000000,0.000000,0.100000
1000.828125,0.000000,0.000000,0.100000
1000.843750,0.000000,0.000000,0.100000
1000.859375,0.000000,0.000000,0.100000
1000.875000,0.000000,0.000000,0.100000
1000.890625,0.000000,0.000000,0.100000
1000.906250,0.025063,0.025063,0.100000
1000.921875,0.136470,0.136470,0.100000
1000.937500,0.316759,0.316759,0.100000
1000.953125,0.531769,0.531769,0.100000
1000.968750,0.740759,0.740759,0.100000
1000.984375,0.904130,0.904130,0.100000
1001.000000,0.990926,0.990926,0.100000
1001.015625,0.984702,0.984702,0.100000
1001.031250,0.886636,0.886636,0.100000
1001.046875,0.715310,0.715310,0.100000
1001.062500,0.503188,0.503188,0.100000
1001.078125,0.290461,0.290461,0.100000
1001.093750,0.117438,0.117438,0.100000
1001.109375,0.016902,0.016902,0.100000
1001.125000,0.000000,0.000000,0.100000
1001.140625,0.000000,0.000000,0.100000
1001.156250,0.000000,0.000000,0.100000
1001.171875,0.000000,0.000000,0.100000
1001.187500,0.000000,0.000000,0.100000
1001.203125,0.000000,0.000000,0.100000
1001.218750,0.000000,0.000000,0.100000
1001.234375,0.000000,0.000000,0.100000
1001.250000,0.000000,0.000000,0.100000
1001.265625,0.000000,0.000000,0.100000
1001.281250,0.000000,0.000000,0.100000
1001.296875,0.000000,0.000000,0.100000
1001.312500,0.000000,0.000000,0.100000
1001.328125,0.000000,0.000000,0.100000
1001.343750,0.000000,0.000000,0.100000
1001.359375,0.000000,0.000000,0.100000
1001.375000,0.000000,0.000000,0.100000
1001.390625,0.000000,0.000000,0.100000
1001.406250,0.000000,0.000000,0.100000
1001.421875,0.000000,0.000000,0.100000
1001.437500,0.000000,0.000000,0.100000
1001.453125,0.000000,0.000000,0.100000
1001.468750,0.000000,0.000000,0.100000
1001.484375,0.000000,0.000000,0.100000
1001.500000,0.000000,0.000000,0.100000
1001.515625,0.000000,0.000000,0.100000
1001.531250,0.000000,0.000000,0.100000
1001.546875,0.000000,0.000000,0.100000
1001.562500,0.000000,0.000000,0.100000
1001.578125,0.000000,0.000000,0.100000
1001.593750,0.000000,0.000000,0.100000
1001.609375,0.000000,0.000000,0.100000
1001.625000,0.000000,0.000000,0.100000
1001.640625,0.000000,0.000000,0.100000
1001.656250,0.000000,0.000000,0.100000
1001.671875,0.000000,0.000000,0.100000
1001.687500,0.000000,0.000000,0.100000
1001.703125,0.000000,0.000000,0.100000
1001.718750,0.000000,0.000000,0.100000
1001.734375,0.000000,0.000000,0.100000
1001.750000,0.000000,0.000000,0.100000
1001.765625,0.000000,0.000000,0.100000
1001.781250,0.000000,0.000000,0.100000
1001.796875,0.009682,0.009682,0.100000
1001.812500,0.097738,0.097738,0.100000
1001.828125,0.262014,0.262014,0.100000
1001.843750,0.471384,0.471384,0.100000
1001.859375,0.686176,0.686176,0.100000
1001.875000,0.865692,0.865692,0.100000
1001.890625,0.975915,0.975915,0.100000
1001.906250,0.995963,0.995963,0.100000
1001.921875,0.922035,0.922035,0.100000
1001.937500,0.768140,0.768140,0.100000
1001.953125,0.563438,0.563438,0.100000
1001.968750,0.346715,0.346715,0.100000
1001.984375,0.159037,0.159037,0.100000
1002.000000,0.035965,0.035965,0.100000
1002.015625,0.000000,0.000000,0.100000
1002.031250,0.000000,0.000000,0.100000
1002.046875,0.000000,0.000000,0.100000
1002.062500,0.000000,0.000000,0.100000
1002.078125,0.000000,0.000000,0.100000
1002.093750,0.000000,0.000000,0.100000
1002.109375,0.000000,0.000000,0.100000
1002.125000,0.000000,0.000000,0.100000
1002.140625,0.000000,0.000000,0.100000
1002.156250,0.000000,0.000000,0.100000
1002.171875,0.000000,0.000000,0.100000
1002.187500,0.000000,0.000000,0.100000
1002.203125,0.000000,0.000000,0.100000
1002.218750,0.000000,0.000000,0.100000
1002.234375,0.000000,0.000000,0.100000
1002.250000,0.000000,0.000000,0.100000
1002.265625,0.000000,0.000000,0.100000
1002.281250,0.000000,0.000000,0.100000
1002.296875,0.000000,0.000000,0.100000
1002.312500,0.000000,0.000000,0.100000
1002.328125,0.000000,0.000000,0.100000
1002.343750,0.000000,0.000000,0.100000
1002.359375,0.000000,0.000000,0.100000
1002.375000,0.000000,0.000000,0.100000
1002.390625,0.000000,0.000000,0.100000
1002.406250,0.000000,0.000000,0.100000
1002.421875,0.000000,0.000000,0.100000
1002.437500,0.000000,0.000000,0.100000
1002.453125,0.000000,0.000000,0.100000
1002.468750,0.000000,0.000000,0.100000
1002.484375,0.000000,0.000000,0.100000
1002.500000,0.000000,0.000000,0.100000
1002.515625,0.000000,0.000000,0.100000
1002.531250,0.000000,0.000000,0.100000
1002.546875,0.000000,0.000000,0.100000
1002.562500,0.000000,0.000000,0.100000
1002.578125,0.000000,0.000000,0.100000
1002.593750,0.000000,0.000000,0.100000
1002.609375,0.000000,0.000000,0.100000
1002.625000,0.000000,0.000000,0.100000
1002.640625,0.000000,0.000000,0.100000
1002.656250,0.000000,0.000000,0.100000
1002.671875,0.000000,0.000000,0.100000
1002.687500,0.001454,0.001454,0.100000
1002.703125,0.064873,0.064873,0.100000
1002.718750,0.210741,0.210741,0.100000
1002.734375,0.411417,0.411417,0.100000
1002.750000,0.628878,0.628878,0.100000
1002.765625,0.821919,0.821919,0.100000
1002.781250,0.953963,0.953963,0.100000
1002.796875,0.999990,0.999990,0.100000
1002.812500,0.951279,0.951279,0.100000
1002.828125,0.817059,0.817059,0.100000
1002.843750,0.622763,0.622763,0.100000
1002.859375,0.405206,0.405206,0.100000
1002.875000,0.205610,0.205610,0.100000
1002.890625,0.061796,0.061796,0.100000
1002.906250,0.001012,0.001012,0.100000
1002.921875,0.000000,0.000000,0.100000
1002.937500,0.000000,0.000000,0.100000
1002.953125,0.000000,0.000000,0.100000
1002.968750,0.000000,0.000000,0.100000
1002.984375,0.000000,0.000000,0.100000
1003.000000,0.000000,0.000000,0.100000
1003.015625,0.000000,0.000000,0.100000
1003.031250,0.000000,0.000000,0.100000
1003.046875,0.000000,0.000000,0.100000
1003.062500,0.000000,0.000000,0.100000
1003.078125,0.000000,0.000000,0.100000
1003.093750,0.000000,0.000000,0.100000
1003.109375,0.000000,0.000000,0.100000
1003.125000,0.000000,0.000000,0.100000
1003.140625,0.000000,0.000000,0.100000
1003.156250,0.000000,0.000000,0.100000
1003.171875,0.000000,0.000000,0.100000
1003.187500,0.000000,0.000000,0.100000
1003.203125,0.000000,0.000000,0.100000
1003.218750,0.000000,0.000000,0.100000
1003.234375,0.000000,0.000000,0.100000
1003.250000,0.000000,0.000000,0.100000
1003.265625,0.000000,0.000000,0.100000
1003.281250,0.000000,0.000000,0.100000
1003.296875,0.000000,0.000000,0.100000
1003.312500,0.000000,0.000000,0.100000
1003.328125,0.000000,0.000000,0.100000
1003.343750,0.000000,0.000000,0.100000
1003.359375,0.000000,0.000000,0.100000
1003.375000,0.000000,0.000000,0.100000
1003.390625,0.000000,0.000000,0.100000
1003.406250,0.000000,0.000000,0.100000
1003.421875,0.000000,0.000000,0.100000
1003.437500,0.000000,0.000000,0.100000
1003.453125,0.000000,0.000000,0.100000
1003.468750,0.000000,0.000000,0.100000
1003.484375,0.000000,0.000000,0.100000
1003.500000,0.000000,0.000000,0.100000
1003.515625,0.000000,0.000000,0.100000
1003.531250,0.000000,0.000000,0.100000
1003.546875,0.000000,0.000000,0.100000
1003.562500,0.000000,0.000000,0.100000
1003.578125,0.000000,0.000000,0.100000
1003.593750,0.038355,0.038355,0.100000
1003.609375,0.163686,0.163686,0.100000
1003.625000,0.352742,0.352742,0.100000
1003.640625,0.569700,0.569700,0.100000
1003.656250,0.773452,0.773452,0.100000
1003.671875,0.925390,0.925390,0.100000
1003.687500,0.996725,0.996725,0.100000
1003.703125,0.973940,0.973940,0.100000
1003.718750,0.861354,0.861354,0.100000
1003.734375,0.680298,0.680298,0.100000
1003.750000,0.465079,0.465079,0.100000
1003.765625,0.256477,0.256477,0.100000
1003.781250,0.094018,0.094018,0.100000
1003.796875,0.008484,0.008484,0.100000
1003.812500,0.000000,0.000000,0.100000
1003.828125,0.000000,0.000000,0.100000
1003.843750,0.000000,0.000000,0.100000
1003.859375,0.000000,0.000000,0.100000
1003.875000,0.000000,0.000000,0.100000
1003.890625,0.000000,0.000000,0.100000
1003.906250,0.000000,0.000000,0.100000
1003.921875,0.000000,0.000000,0.100000
1003.937500,0.000000,0.000000,0.100000
1003.953125,0.000000,0.000000,0.100000
1003.968750,0.000000,0.000000,0.100000
1003.984375,0.000000,0.000000,0.100000
1004.000000,0.000000,0.000000,0.100000
1004.015625,0.000000,0.000000,0.100000
1004.031250,0.000000,0.000000,0.100000
1004.046875,0.000000,0.000000,0.100000
1004.062500,0.000000,0.000000,0.100000
1004.078125,0.000000,0.000000,0.100000
1004.093750,0.000000,0.000000,0.100000
1004.109375,0.000000,0.000000,0.100000
1004.125000,0.000000,0.000000,0.100000
1004.140625,0.000000,0.000000,0.100000
1004.156250,0.000000,0.000000,0.100000
1004.171875,0.000000,0.000000,0.100000
1004.187500,0.000000,0.000000,0.100000
1004.203125,0.000000,0.000000,0.100000
1004.218750,0.000000,0.000000,0.100000
1004.234375,0.000000,0.000000,0.100000
1004.250000,0.000000,0.000000,0.100000
1004.265625,0.000000,0.000000,0.100000
1004.281250,0.000000,0.000000,0.100000
1004.296875,0.000000,0.000000,0.100000
1004.312500,0.000000,0.000000,0.100000
1004.328125,0.000000,0.000000,0.100000
1004.343750,0.000000,0.000000,0.100000
1004.359375,0.000000,0.000000,0.100000
1004.375000,0.000000,0.000000,0.100000
1004.390625,0.000000,0.000000,0.100000
1004.406250,0.000000,0.000000,0.100000
1004.421875,0.000000,0.000000,0.100000
1004.437500,0.000000,0.000000,0.100000
1004.453125,0.000000,0.000000,0.100000
1004.468750,0.000000,0.000000,0.100000
1004.484375,0.018570,0.018570,0.100000
1004.500000,0.121536,0.121536,0.100000
1004.515625,0.296214,0.296214,0.100000
1004.531250,0.509505,0.509505,0.100000
1004.546875,0.720996,0.720996,0.100000
1004.562500,0.890611,0.890611,0.100000
1004.578125,0.986214,0.986214,0.100000
1004.593750,0.989689,0.989689,0.100000
1004.609375,0.900378,0.900378,0.100000
1004.625000,0.735202,0.735202,0.100000
1004.640625,0.525461,0.525461,0.100000
1004.656250,0.310895,0.310895,0.100000
1004.671875,0.132161,0.132161,0.100000
1004.687500,0.023125,0.023125,0.100000
1004.703125,0.000000,0.000000,0.100000
1004.718750,0.000000,0.000000,0.100000
1004.734375,0.000000,0.000000,0.100000
1004.750000,0.000000,0.000000,0.100000
1004.765625,0.000000,0.000000,0.100000
1004.781250,0.000000,0.000000,0.100000
1004.796875,0.000000,0.000000,0.100000
1004.812500,0.000000,0.000000,0.100000
1004.828125,0.000000,0.000000,0.100000
1004.843750,0.000000,0.000000,0.100000
1004.859375,0.000000,0.000000,0.100000
1004.875000,0.000000,0.000000,0.100000
1004.890625,0.000000,0.000000,0.100000
1004.906250,0.000000,0.000000,0.100000
1004.921875,0.000000,0.000000,0.100000
1004.937500,0.000000,0.000000,0.100000
1004.953125,0.000000,0.000000,0.100000
1004.968750,0.000000,0.000000,0.100000
1004.984375,0.000000,0.000000,0.100000
1005.000000,0.000000,0.000000,0.100000
1005.015625,0.000000,0.000000,0.100000
1005.031250,0.000000,0.000000,0.100000
1005.046875,0.000000,0.000000,0.100000
1005.062500,0.000000,0.000000,0.100000
1005.078125,0.000000,0.000000,0.100000
1005.093750,0.000000,0.000000,0.100000
1005.109375,0.000000,0.000000,0.100000
1005.125000,0.000000,0.000000,0.100000
1005.140625,0.000000,0.000000,0.100000
1005.156250,0.000000,0.000000,0.100000
1005.171875,0.000000,0.000000,0.100000
1005.187500,0.000000,0.000000,0.100000
1005.203125,0.000000,0.000000,0.100000
1005.218750,0.000000,0.000000,0.100000
1005.234375,0.000000,0.000000,0.100000
1005.250000,0.000000,0.000000,0.100000
1005.265625,0.000000,0.000000,0.100000
1005.281250,0.000000,0.000000,0.100000
1005.296875,0.000000,0.000000,0.100000
1005.312500,0.000000,0.000000,0.100000
1005.328125,0.000000,0.000000,0.100000
1005.343750,0.000000,0.000000,0.100000
1005.359375,0.000000,0.000000,0.100000
1005.375000,0.005807,0.005807,0.100000
1005.390625,0.084907,0.084907,0.100000
1005.406250,0.242659,0.242659,0.100000
1005.421875,0.449172,0.449172,0.100000
1005.437500,0.665316,0.665316,0.100000
1005.453125,0.850136,0.850136,0.100000
1005.468750,0.968612,0.968612,0.100000
1005.484375,0.998296,0.998296,0.100000
1005.500000,0.933562,0.933562,0.100000
1005.515625,0.786677,0.786677,0.100000
1005.531250,0.585472,0.585472,0.100000
1005.546875,0.368072,0.368072,0.100000
1005.562500,0.175670,0.175670,0.100000
1005.578125,0.044722,0.044722,0.100000
1005.593750,0.000000,0.000000,0.100000
1005.609375,0.000000,0.000000,0.100000
1005.625000,0.000000,0.000000,0.100000
1005.640625,0.000000,0.000000,0.100000
1005.656250,0.000000,0.000000,0.100000
1005.671875,0.000000,0.000000,0.100000
1005.687500,0.000000,0.000000,0.100000
1005.703125,0.000000,0.000000,0.100000
1005.718750,0.000000,0.000000,0.100000
1005.734375,0.000000,0.000000,0.100000
1005.750000,0.000000,0.000000,0.100000
1005.765625,0.000000,0.000000,0.100000
1005.781250,0.000000,0.000000,0.100000
1005.796875,0.000000,0.000000,0.100000
1005.812500,0.000000,0.000000,0.100000
1005.828125,0.000000,0.000000,0.100000
1005.843750,0.000000,0.000000,0.100000
1005.859375,0.000000,0.000000,0.100000
1005.875000,0.000000,0.000000,0.100000
1005.890625,0.000000,0.000000,0.100000
1005.906250,0.000000,0.000000,0.100000
1005.921875,0.000000,0.000000,0.100000
1005.937500,0.000000,0.000000,0.100000
1005.953125,0.000000,0.000000,0.100000
1005.968750,0.000000,0.000000,0.100000
1005.984375,0.000000,0.000000,0.100000
1006.000000,0.000000,0.000000,0.100000
1006.015625,0.000000,0.000000,0.100000
1006.031250,0.000000,0.000000,0.100000
1006.046875,0.000000,0.000000,0.100000
1006.062500,0.000000,0.000000,0.100000
1006.078125,0.000000,0.000000,0.100000
1006.093750,0.000000,0.000000,0.100000
1006.109375,0.000000,0.000000,0.100000
1006.125000,0.000000,0.000000,0.100000
1006.140625,0.000000,0.000000,0.100000
1006.156250,0.000000,0.000000,0.100000
1006.171875,0.000000,0.000000,0.100000
1006.187500,0.000000,0.000000,0.100000
1006.203125,0.000000,0.000000,0.100000
1006.218750,0.000000,0.000000,0.100000
1006.234375,0.000000,0.000000,0.100000
1006.250000,0.000000,0.000000,0.100000
1006.265625,0.000251,0.000251,0.100000
1006.281250,0.054332,0.054332,0.100000
1006.296875,0.192857,0.192857,0.100000
1006.312500,0.389580,0.389580,0.100000
1006.328125,0.607226,0.607226,0.100000
1006.343750,0.804554,0.804554,0.100000
1006.359375,0.944175,0.944175,0.100000
1006.375000,0.999634,0.999634,0.100000
1006.390625,0.960422,0.960422,0.100000
1006.406250,0.833970,0.833970,0.100000
1006.421875,0.644236,0.644236,0.100000
1006.437500,0.427173,0.427173,0.100000
1006.453125,0.223909,0.223909,0.100000
1006.468750,0.072959,0.072959,0.100000
1006.484375,0.002924,0.002924,0.100000
1006.500000,0.000000,0.000000,0.100000
1006.515625,0.000000,0.000000,0.100000
1006.531250,0.000000,0.000000,0.100000
1006.546875,0.000000,0.000000,0.100000
1006.562500,0.000000,0.000000,0.100000
1006.578125,0.000000,0.000000,0.100000
1006.593750,0.000000,0.000000,0.100000
1006.609375,0.000000,0.000000,0.100000
1006.625000,0.000000,0.000000,0.100000
1006.640625,0.000000,0.000000,0.100000
1006.656250,0.000000,0.000000,0.100000
1006.671875,0.000000,0.000000,0.100000
1006.687500,0.000000,0.000000,0.100000
1006.703125,0.000000,0.000000,0.100000
1006.718750,0.000000,0.000000,0.100000
1006.734375,0.000000,0.000000,0.100000
1006.750000,0.000000,0.000000,0.100000
1006.765625,0.000000,0.000000,0.100000
1006.781250,0.000000,0.000000,0.100000
1006.796875,0.000000,0.000000,0.100000
1006.812500,0.000000,0.000000,0.100000
1006.828125,0.000000,0.000000,0.100000
1006.843750,0.000000,0.000000,0.100000
1006.859375,0.000000,0.000000,0.100000
1006.875000,0.000000,0.000000,0.100000
1006.890625,0.000000,0.000000,0.100000
1006.906250,0.000000,0.000000,0.100000
1006.921875,0.000000,0.000000,0.100000
1006.937500,0.000000,0.000000,0.100000
1006.953125,0.000000,0.000000,0.100000
1006.968750,0.000000,0.000000,0.100000
1006.984375,0.000000,0.000000,0.100000
1007.000000,0.000000,0.000000,0.100000
1007.015625,0.000000,0.000000,0.100000
1007.031250,0.000000,0.000000,0.100000
1007.046875,0.000000,0.000000,0.100000
1007.062500,0.000000,0.000000,0.100000
1007.078125,0.000000,0.000000,0.100000
1007.093750,0.000000,0.000000,0.100000
1007.109375,0.000000,0.000000,0.100000
1007.125000,0.000000,0.000000,0.100000
1007.140625,0.000000,0.000000,0.100000
1007.156250,0.000000,0.000000,0.100000
1007.171875,0.030257,0.030257,0.100000
1007.187500,0.147535,0.147535,0.100000
1007.203125,0.331599,0.331599,0.100000
1007.218750,0.547571,0.547571,0.100000
1007.234375,0.754530,0.754530,0.100000
1007.250000,0.913260,0.913260,0.100000
1007.265625,0.993686,0.993686,0.100000
1007.281250,0.980568,0.980568,0.100000
1007.296875,0.876392,0.876392,0.100000
1007.312500,0.700897,0.700897,0.100000
1007.328125,0.487336,0.487336,0.100000
1007.343750,0.276175,0.276175,0.100000
1007.359375,0.107424,0.107424,0.100000
1007.375000,0.013059,0.013059,0.100000
1007.390625,0.000000,0.000000,0.100000
1007.406250,0.000000,0.000000,0.100000
1007.421875,0.000000,0.000000,0.100000
1007.437500,0.000000,0.000000,0.100000
1007.453125,0.000000,0.000000,0.100000
1007.468750,0.000000,0.000000,0.100000
1007.484375,0.000000,0.000000,0.100000
1007.500000,0.000000,0.000000,0.100000
1007.515625,0.000000,0.000000,0.100000
1007.531250,0.000000,0.000000,0.100000
1007.546875,0.000000,0.000000,0.100000
1007.562500,0.000000,0.000000,0.100000
1007.578125,0.000000,0.000000,0.100000
1007.593750,0.000000,0.000000,0.100000
1007.609375,0.000000,0.000000,0.100000
1007.625000,0.000000,0.000000,0.100000
1007.640625,0.000000,0.000000,0.100000
1007.656250,0.000000,0.000000,0.100000
1007.671875,0.000000,0.000000,0.100000
1007.687500,0.000000,0.000000,0.100000
1007.703125,0.000000,0.000000,0.100000
1007.718750,0.000000,0.000000,0.100000
1007.734375,0.000000,0.000000,0.100000
1007.750000,0.000000,0.000000,0.100000
1007.765625,0.000000,0.000000,0.100000
1007.781250,0.000000,0.000000,0.100000
1007.796875,0.000000,0.000000,0.100000
1007.812500,0.000000,0.000000,0.100000
1007.828125,0.000000,0.000000,0.100000
1007.843750,0.000000,0.000000,0.100000
1007.859375,0.000000,0.000000,0.100000
1007.875000,0.000000,0.000000,0.100000
1007.890625,0.000000,0.000000,0.100000
1007.906250,0.000000,0.000000,0.100000
1007.921875,0.000000,0.000000,0.100000
1007.937500,0.000000,0.000000,0.100000
1007.953125,0.000000,0.000000,0.100000
1007.968750,0.000000,0.000000,0.100000
1007.984375,0.000000,0.000000,0.100000
1008.000000,0.000000,0.000000,0.100000
1008.015625,0.000000,0.000000,0.100000
1008.031250,0.000000,0.000000,0.100000
1008.046875,0.000000,0.000000,0.100000
1008.062500,0.013033,0.013033,0.100000
1008.078125,0.107354,0.107354,0.100000
1008.093750,0.276074,0.276074,0.100000
1008.109375,0.487223,0.487223,0.100000
1008.125000,0.700793,0.700793,0.100000
1008.140625,0.876317,0.876317,0.100000
1008.156250,0.980536,0.980536,0.100000
1008.171875,0.993704,0.993704,0.100000
1008.187500,0.913324,0.913324,0.100000
1008.203125,0.754627,0.754627,0.100000
1008.218750,0.547684,0.547684,0.100000
1008.234375,0.331706,0.331706,0.100000
1008.250000,0.147616,0.147616,0.100000
1008.265625,0.030295,0.030295,0.100000
1008.281250,0.000000,0.000000,0.100000
1008.296875,0.000000,0.000000,0.100000
1008.312500,0.000000,0.000000,0.100000
1008.328125,0.000000,0.000000,0.100000
1008.343750,0.000000,0.000000,0.100000
1008.359375,0.000000,0.000000,0.100000
1008.375000,0.000000,0.000000,0.100000
1008.390625,0.000000,0.000000,0.100000
1008.406250,0.000000,0.000000,0.100000
1008.421875,0.000000,0.000000,0.100000
1008.437500,0.000000,0.000000,0.100000
1008.453125,0.000000,0.000000,0.100000
1008.468750,0.000000,0.000000,0.100000
1008.484375,0.000000,0.000000,0.100000
1008.500000,0.000000,0.000000,0.100000
1008.515625,0.000000,0.000000,0.100000
1008.531250,0.000000,0.000000,0.100000
1008.546875,0.000000,0.000000,0.100000
1008.562500,0.000000,0.000000,0.100000
1008.578125,0.000000,0.000000,0.100000
1008.593750,0.000000,0.000000,0.100000
1008.609375,0.000000,0.000000,0.100000
1008.625000,0.000000,0.000000,0.100000
1008.640625,0.000000,0.000000,0.100000
1008.656250,0.000000,0.000000,0.100000
1008.671875,0.000000,0.000000,0.100000
1008.687500,0.000000,0.000000,0.100000
1008.703125,0.000000,0.000000,0.100000
1008.718750,0.000000,0.000000,0.100000
1008.734375,0.000000,0.000000,0.100000
1008.750000,0.000000,0.000000,0.100000
1008.765625,0.000000,0.000000,0.100000
1008.781250,0.000000,0.000000,0.100000
1008.796875,0.000000,0.000000,0.100000
1008.812500,0.000000,0.000000,0.100000
1008.828125,0.000000,0.000000,0.100000
1008.843750,0.000000,0.000000,0.100000
1008.859375,0.000000,0.000000,0.100000
1008.875000,0.000000,0.000000,0.100000
1008.890625,0.000000,0.000000,0.100000
1008.906250,0.000000,0.000000,0.100000
1008.921875,0.000000,0.000000,0.100000
1008.937500,0.000000,0.000000,0.100000
1008.953125,0.002912,0.002912,0.100000
1008.968750,0.072900,0.072900,0.100000
1008.984375,0.223814,0.223814,0.100000
1009.000000,0.427061,0.427061,0.100000
1009.015625,0.644128,0.644128,0.100000
1009.031250,0.833885,0.833885,0.100000
1009.046875,0.960378,0.960378,0.100000
1009.062500,0.999639,0.999639,0.100000
1009.078125,0.944227,0.944227,0.100000
1009.093750,0.804644,0.804644,0.100000
1009.109375,0.607336,0.607336,0.100000
1009.125000,0.389691,0.389691,0.100000
1009.140625,0.192947,0.192947,0.100000
1009.156250,0.054383,0.054383,0.100000
1009.171875,0.000255,0.000255,0.100000
1009.187500,0.000000,0.000000,0.100000
1009.203125,0.000000,0.000000,0.100000
1009.218750,0.000000,0.000000,0.100000
1009.234375,0.000000,0.000000,0.100000
1009.250000,0.000000,0.000000,0.100000
1009.265625,0.000000,0.000000,0.100000
1009.281250,0.000000,0.000000,0.100000
1009.296875,0.000000,0.000000,0.100000
1009.312500,0.000000,0.000000,0.100000
1009.328125,0.000000,0.000000,0.100000
1009.343750,0.000000,0.000000,0.100000
1009.359375,0.000000,0.000000,0.100000
1009.375000,0.000000,0.000000,0.100000
1009.390625,0.000000,0.000000,0.100000
1009.406250,0.000000,0.000000,0.100000
1009.421875,0.000000,0.000000,0.100000
1009.437500,0.000000,0.000000,0.100000
1009.453125,0.000000,0.000000,0.100000
1009.468750,0.000000,0.000000,0.100000
1009.484375,0.000000,0.000000,0.100000
1009.500000,0.000000,0.000000,0.100000
1009.515625,0.000000,0.000000,0.100000
1009.531250,0.000000,0.000000,0.100000
1009.546875,0.000000,0.000000,0.100000
1009.562500,0.000000,0.000000,0.100000
1009.578125,0.000000,0.000000,0.100000
1009.593750,0.000000,0.000000,0.100000
1009.609375,0.000000,0.000000,0.100000
1009.625000,0.000000,0.000000,0.100000
1009.640625,0.000000,0.000000,0.100000
1009.656250,0.000000,0.000000,0.100000
1009.671875,0.000000,0.000000,0.100000
1009.687500,0.000000,0.000000,0.100000
1009.703125,0.000000,0.000000,0.100000
1009.718750,0.000000,0.000000,0.100000
1009.734375,0.000000,0.000000,0.100000
1009.750000,0.000000,0.000000,0.100000
1009.765625,0.000000,0.000000,0.100000
1009.781250,0.000000,0.000000,0.100000
1009.796875,0.000000,0.000000,0.100000
1009.812500,0.000000,0.000000,0.100000
1009.828125,0.000000,0.000000,0.100000
1009.843750,0.000000,0.000000,0.100000
1009.859375,0.044675,0.044675,0.100000
1009.875000,0.175584,0.175584,0.100000
1009.890625,0.367963,0.367963,0.100000
1009.906250,0.585360,0.585360,0.100000
1009.921875,0.786584,0.786584,0.100000
1009.937500,0.933505,0.933505,0.100000
1009.953125,0.998286,0.998286,0.100000
1009.968750,0.968652,0.968652,0.100000
1009.984375,0.850217,0.850217,0.100000
1010.000000,0.665423,0.665423,0.100000
1010.015625,0.449285,0.449285,0.100000
1010.031250,0.242756,0.242756,0.100000
1010.046875,0.084970,0.084970,0.100000
1010.062500,0.005824,0.005824,0.100000
1010.078125,0.000000,0.000000,0.100000
1010.093750,0.000000,0.000000,0.100000
1010.109375,0.000000,0.000000,0.100000
1010.125000,0.000000,0.000000,0.100000
1010.140625,0.000000,0.000000,0.100000
1010.156250,0.000000,0.000000,0.100000
1010.171875,0.000000,0.000000,0.100000
1010.187500,0.000000,0.000000,0.100000
1010.203125,0.000000,0.000000,0.100000
1010.218750,0.000000,0.000000,0.100000
1010.234375,0.000000,0.000000,0.100000
1010.250000,0.000000,0.000000,0.100000
1010.265625,0.000000,0.000000,0.100000
1010.281250,0.000000,0.000000,0.100000
1010.296875,0.000000,0.000000,0.100000
1010.312500,0.000000,0.000000,0.100000
1010.328125,0.000000,0.000000,0.100000
1010.343750,0.000000,0.000000,0.100000
1010.359375,0.000000,0.000000,0.100000
1010.375000,0.000000,0.000000,0.100000
1010.390625,0.000000,0.000000,0.100000
1010.406250,0.000000,0.000000,0.100000
1010.421875,0.000000,0.000000,0.100000
1010.437500,0.000000,0.000000,0.100000
1010.453125,0.000000,0.000000,0.100000
1010.468750,0.000000,0.000000,0.100000
1010.484375,0.000000,0.000000,0.100000
1010.500000,0.000000,0.000000,0.100000
1010.515625,0.000000,0.000000,0.100000
1010.531250,0.000000,0.000000,0.100000
1010.546875,0.000000,0.000000,0.100000
1010.562500,0.000000,0.000000,0.100000
1010.578125,0.000000,0.000000,0.100000
1010.593750,0.000000,0.000000,0.100000
1010.609375,0.000000,0.000000,0.100000
1010.625000,0.000000,0.000000,0.100000
1010.640625,0.000000,0.000000,0.100000
1010.656250,0.000000,0.000000,0.100000
1010.671875,0.000000,0.000000,0.100000
1010.687500,0.000000,0.000000,0.100000
1010.703125,0.000000,0.000000,0.100000
1010.718750,0.000000,0.000000,0.100000
1010.734375,0.000000,0.000000,0.100000
1010.750000,0.023091,0.023091,0.100000
1010.765625,0.132084,0.132084,0.100000
1010.781250,0.310790,0.310790,0.100000
1010.796875,0.525348,0.525348,0.100000
1010.812500,0.735102,0.735102,0.100000
1010.828125,0.900310,0.900310,0.100000
1010.843750,0.989666,0.989666,0.100000
1010.859375,0.986241,0.986241,0.100000
1010.875000,0.890682,0.890682,0.100000
1010.890625,0.721097,0.721097,0.100000
1010.906250,0.509619,0.509619,0.100000
1010.921875,0.296318,0.296318,0.100000
1010.937500,0.121610,0.121610,0.100000
1010.953125,0.018600,0.018600,0.100000
1010.968750,0.000000,0.000000,0.100000
1010.984375,0.000000,0.000000,0.100000
1011.000000,0.000000,0.000000,0.100000
1011.015625,0.000000,0.000000,0.100000
1011.031250,0.000000,0.000000,0.100000
1011.046875,0.000000,0.000000,0.100000
1011.062500,0.000000,0.000000,0.100000
1011.078125,0.000000,0.000000,0.100000
1011.093750,0.000000,0.000000,0.100000
1011.109375,0.000000,0.000000,0.100000
1011.125000,0.000000,0.000000,0.100000
1011.140625,0.000000,0.000000,0.100000
1011.156250,0.000000,0.000000,0.100000
1011.171875,0.000000,0.000000,0.100000
1011.187500,0.000000,0.000000,0.100000
1011.203125,0.000000,0.000000,0.100000
1011.218750,0.000000,0.000000,0.100000
1011.234375,0.000000,0.000000,0.100000
1011.250000,0.000000,0.000000,0.100000
1011.265625,0.000000,0.000000,0.100000
1011.281250,0.000000,0.000000,0.100000
1011.296875,0.000000,0.000000,0.100000
1011.312500,0.000000,0.000000,0.100000
1011.328125,0.000000,0.000000,0.100000
1011.343750,0.000000,0.000000,0.100000
1011.359375,0.000000,0.000000,0.100000
1011.375000,0.000000,0.000000,0.100000
1011.390625,0.000000,0.000000,0.100000
1011.406250,0.000000,0.000000,0.100000
1011.421875,0.000000,0.000000,0.100000
1011.437500,0.000000,0.000000,0.100000
1011.453125,0.000000,0.000000,0.100000
1011.468750,0.000000,0.000000,0.100000
1011.484375,0.000000,0.000000,0.100000
1011.500000,0.000000,0.000000,0.100000
1011.515625,0.000000,0.000000,0.100000
1011.531250,0.000000,0.000000,0.100000
1011.546875,0.000000,0.000000,0.100000
1011.562500,0.000000,0.000000,0.100000
1011.578125,0.000000,0.000000,0.100000
1011.593750,0.000000,0.000000,0.100000
1011.609375,0.000000,0.000000,0.100000
1011.625000,0.000000,0.000000,0.100000
1011.640625,0.008463,0.008463,0.100000
1011.656250,0.093952,0.093952,0.100000
1011.671875,0.256378,0.256378,0.100000
1011.687500,0.464966,0.464966,0.100000
1011.703125,0.680192,0.680192,0.100000
1011.718750,0.861275,0.861275,0.100000
1011.734375,0.973904,0.973904,0.100000
1011.750000,0.996738,0.996738,0.100000
1011.765625,0.925449,0.925449,0.100000
1011.781250,0.773547,0.773547,0.100000
1011.796875,0.569812,0.569812,0.100000
1011.812500,0.352850,0.352850,0.100000
1011.828125,0.163770,0.163770,0.100000
1011.843750,0.038398,0.038398,0.100000
1011.859375,0.000000,0.000000,0.100000
1011.875000,0.000000,0.000000,0.100000
1011.890625,0.000000,0.000000,0.100000
1011.906250,0.000000,0.000000,0.100000
1011.921875,0.000000,0.000000,0.100000
1011.937500,0.000000,0.000000,0.100000
1011.953125,0.000000,0.000000,0.100000
1011.968750,0.000000,0.000000,0.100000
1011.984375,0.000000,0.000000,0.100000
1012.000000,0.000000,0.000000,0.100000
1012.015625,0.000000,0.000000,0.100000
1012.031250,0.000000,0.000000,0.100000
1012.046875,0.000000,0.000000,0.100000
1012.062500,0.000000,0.000000,0.100000
1012.078125,0.000000,0.000000,0.100000
1012.093750,0.000000,0.000000,0.100000
1012.109375,0.000000,0.000000,0.100000
1012.125000,0.000000,0.000000,0.100000
1012.140625,0.000000,0.000000,0.100000
1012.156250,0.000000,0.000000,0.100000
1012.171875,0.000000,0.000000,0.100000
1012.187500,0.000000,0.000000,0.100000
1012.203125,0.000000,0.000000,0.100000
1012.218750,0.000000,0.000000,0.100000
1012.234375,0.000000,0.000000,0.100000
1012.250000,0.000000,0.000000,0.100000
1012.265625,0.000000,0.000000,0.100000
1012.281250,0.000000,0.000000,0.100000
1012.296875,0.000000,0.000000,0.100000
1012.312500,0.000000,0.000000,0.100000
1012.328125,0.000000,0.000000,0.100000
1012.343750,0.000000,0.000000,0.100000
1012.359375,0.000000,0.000000,0.100000
1012.375000,0.000000,0.000000,0.100000
1012.390625,0.000000,0.000000,0.100000
1012.406250,0.000000,0.000000,0.100000
1012.421875,0.000000,0.000000,0.100000
1012.437500,0.000000,0.000000,0.100000
1012.453125,0.000000,0.000000,0.100000
1012.468750,0.000000,0.000000,0.100000
1012.484375,0.000000,0.000000,0.100000
1012.500000,0.000000,0.000000,0.100000
1012.515625,0.000000,0.000000,0.100000
1012.531250,0.001005,0.001005,0.100000
1012.546875,0.061741,0.061741,0.100000
1012.562500,0.205518,0.205518,0.100000
1012.578125,0.405094,0.405094,0.100000
1012.593750,0.622653,0.622653,0.100000
1012.609375,0.816971,0.816971,0.100000
1012.625000,0.951230,0.951230,0.100000
1012.640625,0.999989,0.999989,0.100000
1012.656250,0.954011,0.954011,0.100000
1012.671875,0.822006,0.822006,0.100000
1012.687500,0.628988,0.628988,0.100000
1012.703125,0.411529,0.411529,0.100000
1012.718750,0.210833,0.210833,0.100000
1012.734375,0.064929,0.064929,0.100000
1012.750000,0.001462,0.001462,0.100000
1012.765625,0.000000,0.000000,0.100000
1012.781250,0.000000,0.000000,0.100000
1012.796875,0.000000,0.000000,0.100000
1012.812500,0.000000,0.000000,0.100000
1012.828125,0.000000,0.000000,0.100000
1012.843750,0.000000,0.000000,0.100000
1012.859375,0.000000,0.000000,0.100000
1012.875000,0.000000,0.000000,0.100000
1012.890625,0.000000,0.000000,0.100000
1012.906250,0.000000,0.000000,0.100000
1012.921875,0.000000,0.000000,0.100000
1012.937500,0.000000,0.000000,0.100000
1012.953125,0.000000,0.000000,0.100000
1012.968750,0.000000,0.000000,0.100000
1012.984375,0.000000,0.000000,0.100000
1013.000000,0.000000,0.000000,0.100000
1013.015625,0.000000,0.000000,0.100000
1013.031250,0.000000,0.000000,0.100000
1013.046875,0.000000,0.000000,0.100000
1013.062500,0.000000,0.000000,0.100000
1013.078125,0.000000,0.000000,0.100000
1013.093750,0.000000,0.000000,0.100000
1013.109375,0.000000,0.000000,0.100000
1013.125000,0.000000,0.000000,0.100000
1013.140625,0.000000,0.000000,0.100000
1013.156250,0.000000,0.000000,0.100000
1013.171875,0.000000,0.000000,0.100000
1013.187500,0.000000,0.000000,0.100000
1013.203125,0.000000,0.000000,0.100000
1013.218750,0.000000,0.000000,0.100000
1013.234375,0.000000,0.000000,0.100000
1013.250000,0.000000,0.000000,0.100000
1013.265625,0.000000,0.000000,0.100000
1013.281250,0.000000,0.000000,0.100000
1013.296875,0.000000,0.000000,0.100000
1013.312500,0.000000,0.000000,0.100000
1013.328125,0.000000,0.000000,0.100000
1013.343750,0.000000,0.000000,0.100000
1013.359375,0.000000,0.000000,0.100000
1013.375000,0.000000,0.000000,0.100000
1013.390625,0.000000,0.000000,0.100000
1013.406250,0.000000,0.000000,0.100000
1013.421875,0.000000,0.000000,0.100000
1013.437500,0.035923,0.035923,0.100000
1013.453125,0.158954,0.158954,0.100000
1013.468750,0.346607,0.346607,0.100000
1013.484375,0.563325,0.563325,0.100000
1013.500000,0.768044,0.768044,0.100000
1013.515625,0.921974,0.921974,0.100000
1013.531250,0.995948,0.995948,0.100000
1013.546875,0.975950,0.975950,0.100000
1013.562500,0.865769,0.865769,0.100000
1013.578125,0.686282,0.686282,0.100000
1013.593750,0.471498,0.471498,0.100000
1013.609375,0.262114,0.262114,0.100000
1013.625000,0.097806,0.097806,0.100000
1013.640625,0.009705,0.009705,0.100000
1013.656250,0.000000,0.000000,0.100000
1013.671875,0.000000,0.000000,0.100000
1013.687500,0.000000,0.000000,0.100000
1013.703125,0.000000,0.000000,0.100000
1013.718750,0.000000,0.000000,0.100000
1013.734375,0.000000,0.000000,0.100000
1013.750000,0.000000,0.000000,0.100000
1013.765625,0.000000,0.000000,0.100000
1013.781250,0.000000,0.000000,0.100000
1013.796875,0.000000,0.000000,0.100000
1013.812500,0.000000,0.000000,0.100000
1013.828125,0.000000,0.000000,0.100000
1013.843750,0.000000,0.000000,0.100000
1013.859375,0.000000,0.000000,0.100000
1013.875000,0.000000,0.000000,0.100000
1013.890625,0.000000,0.000000,0.100000
1013.906250,0.000000,0.000000,0.100000
1013.921875,0.000000,0.000000,0.100000
1013.937500,0.000000,0.000000,0.100000
1013.953125,0.000000,0.000000,0.100000
1013.968750,0.000000,0.000000,0.100000
1013.984375,0.000000,0.000000,0.100000
1014.000000,0.000000,0.000000,0.100000
1014.015625,0.000000,0.000000,0.100000
1014.031250,0.000000,0.000000,0.100000
1014.046875,0.000000,0.000000,0.100000
1014.062500,0.000000,0.000000,0.100000
1014.078125,0.000000,0.000000,0.100000
1014.093750,0.000000,0.000000,0.100000
1014.109375,0.000000,0.000000,0.100000
1014.125000,0.000000,0.000000,0.100000
1014.140625,0.000000,0.000000,0.100000
1014.156250,0.000000,0.000000,0.100000
1014.171875,0.000000,0.000000,0.100000
1014.187500,0.000000,0.000000,0.100000
1014.203125,0.000000,0.000000,0.100000
1014.218750,0.000000,0.000000,0.100000
1014.234375,0.000000,0.000000,0.100000
1014.250000,0.000000,0.000000,0.100000
1014.265625,0.000000,0.000000,0.100000
1014.281250,0.000000,0.000000,0.100000
1014.296875,0.000000,0.000000,0.100000
1014.312500,0.000000,0.000000,0.100000
1014.328125,0.016873,0.016873,0.100000
1014.343750,0.117364,0.117364,0.100000
1014.359375,0.290358,0.290358,0.100000
1014.375000,0.503074,0.503074,0.100000
1014.390625,0.715208,0.715208,0.100000
1014.406250,0.886564,0.886564,0.100000
1014.421875,0.984674,0.984674,0.100000
1014.437500,0.990948,0.990948,0.100000
1014.453125,0.904197,0.904197,0.100000
1014.468750,0.740859,0.740859,0.100000
1014.484375,0.531882,0.531882,0.100000
1014.500000,0.316865,0.316865,0.100000
1014.515625,0.136548,0.136548,0.100000
1014.531250,0.025098,0.025098,0.100000
1014.546875,0.000000,0.000000,0.100000
1014.562500,0.000000,0.000000,0.100000
1014.578125,0.000000,0.000000,0.100000
1014.593750,0.000000,0.000000,0.100000
1014.609375,0.000000,0.000000,0.100000
1014.625000,0.000000,0.000000,0.100000
1014.640625,0.000000,0.000000,0.100000
1014.656250,0.000000,0.000000,0.100000
1014.671875,0.000000,0.000000,0.100000
1014.687500,0.000000,0.000000,0.100000
1014.703125,0.000000,0.000000,0.100000
1014.718750,0.000000,0.000000,0.100000
1014.734375,0.000000,0.000000,0.100000
1014.750000,0.000000,0.000000,0.100000
1014.765625,0.000000,0.000000,0.100000
1014.781250,0.000000,0.000000,0.100000
1014.796875,0.000000,0.000000,0.100000
1014.812500,0.000000,0.000000,0.100000
1014.828125,0.000000,0.000000,0.100000
1014.843750,0.000000,0.000000,0.100000
1014.859375,0.000000,0.000000,0.100000
1014.875000,0.000000,0.000000,0.100000
1014.890625,0.000000,0.000000,0.100000
1014.906250,0.000000,0.000000,0.100000
1014.921875,0.000000,0.000000,0.100000
1014.937500,0.000000,0.000000,0.100000
1014.953125,0.000000,0.000000,0.100000
1014.968750,0.000000,0.000000,0.100000
1014.984375,0.000000,0.000000,0.100000
1015.000000,0.000000,0.000000,0.100000
1015.015625,0.000000,0.000000,0.100000
1015.031250,0.000000,0.000000,0.100000
1015.046875,0.000000,0.000000,0.100000
1015.062500,0.000000,0.000000,0.100000
1015.078125,0.000000,0.000000,0.100000
1015.093750,0.000000,0.000000,0.100000
1015.109375,0.000000,0.000000,0.100000
1015.125000,0.000000,0.000000,0.100000
1015.140625,0.000000,0.000000,0.100000
1015.156250,0.000000,0.000000,0.100000
1015.171875,0.000000,0.000000,0.100000
1015.187500,0.000000,0.000000,0.100000
1015.203125,0.000000,0.000000,0.100000
1015.218750,0.004870,0.004870,0.100000
1015.234375,0.081355,0.081355,0.100000
1015.250000,0.237166,0.237166,0.100000
1015.265625,0.442778,0.442778,0.100000
1015.281250,0.659232,0.659232,0.100000
1015.296875,0.845516,0.845516,0.100000
1015.312500,0.966331,0.966331,0.100000
1015.328125,0.998785,0.998785,0.100000
1015.343750,0.936730,0.936730,0.100000
1015.359375,0.791923,0.791923,0.100000
1015.375000,0.591802,0.591802,0.100000
1015.390625,0.374287,0.374287,0.100000
1015.406250,0.180592,0.180592,0.100000
1015.421875,0.047418,0.047418,0.100000
1015.437500,0.000000,0.000000,0.100000
1015.453125,0.000000,0.000000,0.100000
1015.468750,0.000000,0.000000,0.100000
1015.484375,0.000000,0.000000,0.100000
1015.500000,0.000000,0.000000,0.100000
1015.515625,0.000000,0.000000,0.100000
1015.531250,0.000000,0.000000,0.100000
1015.546875,0.000000,0.000000,0.100000
1015.562500,0.000000,0.000000,0.100000
1015.578125,0.000000,0.000000,0.100000
1015.593750,0.000000,0.000000,0.100000
1015.609375,0.000000,0.000000,0.100000
1015.625000,0.000000,0.000000,0.100000
1015.640625,0.000000,0.000000,0.100000
1015.656250,0.000000,0.000000,0.100000
1015.671875,0.000000,0.000000,0.100000
1015.687500,0.000000,0.000000,0.100000
1015.703125,0.000000,0.000000,0.100000
1015.718750,0.000000,0.000000,0.100000
1015.734375,0.000000,0.000000,0.100000
1015.750000,0.000000,0.000000,0.100000
1015.765625,0.000000,0.000000,0.100000
1015.781250,0.000000,0.000000,0.100000
1015.796875,0.000000,0.000000,0.100000
1015.812500,0.000000,0.000000,0.100000
1015.828125,0.000000,0.000000,0.100000
1015.843750,0.000000,0.000000,0.100000
1015.859375,0.000000,0.000000,0.100000
1015.875000,0.000000,0.000000,0.100000
1015.890625,0.000000,0.000000,0.100000
1015.906250,0.000000,0.000000,0.100000
1015.921875,0.000000,0.000000,0.100000
1015.937500,0.000000,0.000000,0.100000
1015.953125,0.000000,0.000000,0.100000
1015.968750,0.000000,0.000000,0.100000
1015.984375,0.000000,0.000000,0.100000
1016.000000,0.000000,0.000000,0.100000
1016.015625,0.000000,0.000000,0.100000
1016.031250,0.000000,0.000000,0.100000
1016.046875,0.000000,0.000000,0.100000
1016.062500,0.000000,0.000000,0.100000
1016.078125,0.000000,0.000000,0.100000
1016.093750,0.000000,0.000000,0.100000
1016.109375,0.000089,0.000089,0.100000
1016.125000,0.051453,0.051453,0.100000
1016.140625,0.187807,0.187807,0.100000
1016.156250,0.383316,0.383316,0.100000
1016.171875,0.600935,0.600935,0.100000
1016.187500,0.799428,0.799428,0.100000
1016.203125,0.941185,0.941185,0.100000
1016.218750,0.999347,0.999347,0.100000
1016.234375,0.962892,0.962892,0.100000
1016.250000,0.838729,0.838729,0.100000
1016.265625,0.650383,0.650383,0.100000
1016.281250,0.433542,0.433542,0.100000
1016.296875,0.229294,0.229294,0.100000
1016.312500,0.076339,0.076339,0.100000
1016.328125,0.003660,0.003660,0.100000
1016.343750,0.000000,0.000000,0.100000
1016.359375,0.000000,0.000000,0.100000
1016.375000,0.000000,0.000000,0.100000
1016.390625,0.000000,0.000000,0.100000
1016.406250,0.000000,0.000000,0.100000
1016.421875,0.000000,0.000000,0.100000
1016.437500,0.000000,0.000000,0.100000
1016.453125,0.000000,0.000000,0.100000
1016.468750,0.000000,0.000000,0.100000
1016.484375,0.000000,0.000000,0.100000
1016.500000,0.000000,0.000000,0.100000
1016.515625,0.000000,0.000000,0.100000
1016.531250,0.000000,0.000000,0.100000
1016.546875,0.000000,0.000000,0.100000
1016.562500,0.000000,0.000000,0.100000
1016.578125,0.000000,0.000000,0.100000
1016.593750,0.000000,0.000000,0.100000
1016.609375,0.000000,0.000000,0.100000
1016.625000,0.000000,0.000000,0.100000
1016.640625,0.000000,0.000000,0.100000
1016.656250,0.000000,0.000000,0.100000
1016.671875,0.000000,0.000000,0.100000
1016.687500,0.000000,0.000000,0.100000
1016.703125,0.000000,0.000000,0.100000
1016.718750,0.000000,0.000000,0.100000
1016.734375,0.000000,0.000000,0.100000
1016.750000,0.000000,0.000000,0.100000
1016.765625,0.000000,0.000000,0.100000
1016.781250,0.000000,0.000000,0.100000
1016.796875,0.000000,0.000000,0.100000
1016.812500,0.000000,0.000000,0.100000
1016.828125,0.000000,0.000000,0.100000
1016.843750,0.000000,0.000000,0.100000
1016.859375,0.000000,0.000000,0.100000
1016.875000,0.000000,0.000000,0.100000
1016.890625,0.000000,0.000000,0.100000
1016.906250,0.000000,0.000000,0.100000
1016.921875,0.000000,0.000000,0.100000
1016.937500,0.000000,0.000000,0.100000
1016.953125,0.000000,0.000000,0.100000
1016.968750,0.000000,0.000000,0.100000
1016.984375,0.000000,0.000000,0.100000
1017.000000,0.000000,0.000000,0.100000
1017.015625,0.028092,0.028092,0.100000
1017.031250,0.143002,0.143002,0.100000
1017.046875,0.325557,0.325557,0.100000
1017.062500,0.541165,0.541165,0.100000
1017.078125,0.748973,0.748973,0.100000
1017.093750,0.909605,0.909605,0.100000
1017.109375,0.992626,0.992626,0.100000
1017.125000,0.982304,0.982304,0.100000
1017.140625,0.880594,0.880594,0.100000
1017.156250,0.706770,0.706770,0.100000
1017.171875,0.493767,0.493767,0.100000
1017.187500,0.281945,0.281945,0.100000
1017.203125,0.111440,0.111440,0.100000
1017.218750,0.014559,0.014559,0.100000
1017.234375,0.000000,0.000000,0.100000
1017.250000,0.000000,0.000000,0.100000
1017.265625,0.000000,0.000000,0.100000
1017.281250,0.000000,0.000000,0.100000
1017.296875,0.000000,0.000000,0.100000
1017.312500,0.000000,0.000000,0.100000
1017.328125,0.000000,0.000000,0.100000
1017.343750,0.000000,0.000000,0.100000
1017.359375,0.000000,0.000000,0.100000
1017.375000,0.000000,0.000000,0.100000
1017.390625,0.000000,0.000000,0.100000
1017.406250,0.000000,0.000000,0.100000
1017.421875,0.000000,0.000000,0.100000
1017.437500,0.000000,0.000000,0.100000
1017.453125,0.000000,0.000000,0.100000
1017.468750,0.000000,0.000000,0.100000
1017.484375,0.000000,0.000000,0.100000
1017.500000,0.000000,0.000000,0.100000
1017.515625,0.000000,0.000000,0.100000
1017.531250,0.000000,0.000000,0.100000
1017.546875,0.000000,0.000000,0.100000
1017.562500,0.000000,0.000000,0.100000
1017.578125,0.000000,0.000000,0.100000
1017.593750,0.000000,0.000000,0.100000
1017.609375,0.000000,0.000000,0.100000
1017.625000,0.000000,0.000000,0.100000
1017.640625,0.000000,0.000000,0.100000
1017.656250,0.000000,0.000000,0.100000
1017.671875,0.000000,0.000000,0.100000
1017.687500,0.000000,0.000000,0.100000
1017.703125,0.000000,0.000000,0.100000
1017.718750,0.000000,0.000000,0.100000
1017.734375,0.000000,0.000000,0.100000
1017.750000,0.000000,0.000000,0.100000
1017.765625,0.000000,0.000000,0.100000
1017.781250,0.000000,0.000000,0.100000
1017.796875,0.000000,0.000000,0.100000
1017.812500,0.000000,0.000000,0.100000
1017.828125,0.000000,0.000000,0.100000
1017.843750,0.000000,0.000000,0.100000
1017.859375,0.000000,0.000000,0.100000
1017.875000,0.000000,0.000000,0.100000
1017.890625,0.000000,0.000000,0.100000
1017.906250,0.011614,0.011614,0.100000
1017.921875,0.103404,0.103404,0.100000
1017.937500,0.270341,0.270341,0.100000
1017.953125,0.480794,0.480794,0.100000
1017.968750,0.694886,0.694886,0.100000
1017.984375,0.872051,0.872051,0.100000
1018.000000,0.978719,0.978719,0.100000
1018.015625,0.994680,0.994680,0.100000
1018.031250,0.916909,0.916909,0.100000
1018.046875,0.760142,0.760142,0.100000
1018.062500,0.554083,0.554083,0.100000
1018.078125,0.337776,0.337776,0.100000
1018.093750,0.152208,0.152208,0.100000
1018.109375,0.032539,0.032539,0.100000
1018.125000,0.000000,0.000000,0.100000
1018.140625,0.000000,0.000000,0.100000
1018.156250,0.000000,0.000000,0.100000
1018.171875,0.000000,0.000000,0.100000
1018.187500,0.000000,0.000000,0.100000
1018.203125,0.000000,0.000000,0.100000
1018.218750,0.000000,0.000000,0.100000
1018.234375,0.000000,0.000000,0.100000
1018.250000,0.000000,0.000000,0.100000
1018.265625,0.000000,0.000000,0.100000
1018.281250,0.000000,0.000000,0.100000
1018.296875,0.000000,0.000000,0.100000
1018.312500,0.000000,0.000000,0.100000
1018.328125,0.000000,0.000000,0.100000
1018.343750,0.000000,0.000000,0.100000
1018.359375,0.000000,0.000000,0.100000
1018.375000,0.000000,0.000000,0.100000
1018.390625,0.000000,0.000000,0.100000
1018.406250,0.000000,0.000000,0.100000
1018.421875,0.000000,0.000000,0.100000
1018.437500,0.000000,0.000000,0.100000
1018.453125,0.000000,0.000000,0.100000
1018.468750,0.000000,0.000000,0.100000
1018.484375,0.000000,0.000000,0.100000
1018.500000,0.000000,0.000000,0.100000
1018.515625,0.000000,0.000000,0.100000
1018.531250,0.000000,0.000000,0.100000
1018.546875,0.000000,0.000000,0.100000
1018.562500,0.000000,0.000000,0.100000
1018.578125,0.000000,0.000000,0.100000
1018.593750,0.000000,0.000000,0.100000
1018.609375,0.000000,0.000000,0.100000
1018.625000,0.000000,0.000000,0.100000
1018.640625,0.000000,0.000000,0.100000
1018.656250,0.000000,0.000000,0.100000
1018.671875,0.000000,0.000000,0.100000
1018.687500,0.000000,0.000000,0.100000
1018.703125,0.000000,0.000000,0.100000
1018.718750,0.000000,0.000000,0.100000
1018.734375,0.000000,0.000000,0.100000
1018.750000,0.000000,0.000000,0.100000
1018.765625,0.000000,0.000000,0.100000
1018.781250,0.000000,0.000000,0.100000
1018.796875,0.002260,0.002260,0.100000
1018.812500,0.069591,0.069591,0.100000
1018.828125,0.218476,0.218476,0.100000
1018.843750,0.420704,0.420704,0.100000
1018.859375,0.637957,0.637957,0.100000
1018.875000,0.829070,0.829070,0.100000
1018.890625,0.957831,0.957831,0.100000
1018.906250,0.999842,0.999842,0.100000
1018.921875,0.947143,0.947143,0.100000
1018.937500,0.809719,0.809719,0.100000
1018.953125,0.613609,0.613609,0.100000
1018.968750,0.395973,0.395973,0.100000
1018.984375,0.198048,0.198048,0.100000
1019.000000,0.057337,0.057337,0.100000
1019.015625,0.000502,0.000502,0.100000
1019.031250,0.000000,0.000000,0.100000
1019.046875,0.000000,0.000000,0.100000
1019.062500,0.000000,0.000000,0.100000
1019.078125,0.000000,0.000000,0.100000
1019.093750,0.000000,0.000000,0.100000
1019.109375,0.000000,0.000000,0.100000
1019.125000,0.000000,0.000000,0.100000
1019.140625,0.000000,0.000000,0.100000
1019.156250,0.000000,0.000000,0.100000
1019.171875,0.000000,0.000000,0.100000
1019.187500,0.000000,0.000000,0.100000
1019.203125,0.000000,0.000000,0.100000
1019.218750,0.000000,0.000000,0.100000
1019.234375,0.000000,0.000000,0.100000
1019.250000,0.000000,0.000000,0.100000
1019.265625,0.000000,0.000000,0.100000
1019.281250,0.000000,0.000000,0.100000
1019.296875,0.000000,0.000000,0.100000
1019.312500,0.000000,0.000000,0.100000
1019.328125,0.000000,0.000000,0.100000
1019.343750,0.000000,0.000000,0.100000
1019.359375,0.000000,0.000000,0.100000
1019.375000,0.000000,0.000000,0.100000
1019.390625,0.000000,0.000000,0.100000
1019.406250,0.000000,0.000000,0.100000
1019.421875,0.000000,0.000000,0.100000
1019.437500,0.000000,0.000000,0.100000
1019.453125,0.000000,0.000000,0.100000
1019.468750,0.000000,0.000000,0.100000
1019.484375,0.000000,0.000000,0.100000
1019.500000,0.000000,0.000000,0.100000
1019.515625,0.000000,0.000000,0.100000
1019.531250,0.000000,0.000000,0.100000
1019.546875,0.000000,0.000000,0.100000
1019.562500,0.000000,0.000000,0.100000
1019.578125,0.000000,0.000000,0.100000
1019.593750,0.000000,0.000000,0.100000
1019.609375,0.000000,0.000000,0.100000
1019.625000,0.000000,0.000000,0.100000
1019.640625,0.000000,0.000000,0.100000
1019.656250,0.000000,0.000000,0.100000
1019.671875,0.000000,0.000000,0.100000
1019.687500,0.000000,0.000000,0.100000
1019.703125,0.042055,0.042055,0.100000
1019.718750,0.170716,0.170716,0.100000
1019.734375,0.361770,0.361770,0.100000
1019.750000,0.579016,0.579016,0.100000
1019.765625,0.781290,0.781290,0.100000
1019.781250,0.930265,0.930265,0.100000
1019.796875,0.997713,0.997713,0.100000
1019.812500,0.970855,0.970855,0.100000
1019.828125,0.854779,0.854779,0.100000
1019.843750,0.671479,0.671479,0.100000
1019.859375,0.455688,0.455688,0.100000
1019.875000,0.248293,0.248293,0.100000
1019.890625,0.088591,0.088591,0.100000
1019.906250,0.006843,0.006843,0.100000
1019.921875,0.000000,0.000000,0.100000
1019.937500,0.000000,0.000000,0.100000
1019.953125,0.000000,0.000000,0.100000
1019.968750,0.000000,0.000000,0.100000
1019.984375,0.000000,0.000000,0.100000
1020.000000,0.000000,0.000000,0.100000
1020.015625,0.000000,0.000000,0.100000
1020.031250,0.000000,0.000000,0.100000
1020.046875,0.000000,0.000000,0.100000
1020.062500,0.000000,0.000000,0.100000
1020.078125,0.000000,0.000000,0.100000
1020.093750,0.000000,0.000000,0.100000
1020.109375,0.000000,0.000000,0.100000
1020.125000,0.000000,0.000000,0.100000
1020.140625,0.000000,0.000000,0.100000
1020.156250,0.000000,0.000000,0.100000
1020.171875,0.000000,0.000000,0.100000
1020.187500,0.000000,0.000000,0.100000
1020.203125,0.000000,0.000000,0.100000
1020.218750,0.000000,0.000000,0.100000
1020.234375,0.000000,0.000000,0.100000
1020.250000,0.000000,0.000000,0.100000
1020.265625,0.000000,0.000000,0.100000
1020.281250,0.000000,0.000000,0.100000
1020.296875,0.000000,0.000000,0.100000
1020.312500,0.000000,0.000000,0.100000
1020.328125,0.000000,0.000000,0.100000
1020.343750,0.000000,0.000000,0.100000
1020.359375,0.000000,0.000000,0.100000
1020.375000,0.000000,0.000000,0.100000
1020.390625,0.000000,0.000000,0.100000
1020.406250,0.000000,0.000000,0.100000
1020.421875,0.000000,0.000000,0.100000
1020.437500,0.000000,0.000000,0.100000
1020.453125,0.000000,0.000000,0.100000
1020.468750,0.000000,0.000000,0.100000
1020.484375,0.000000,0.000000,0.100000
1020.500000,0.000000,0.000000,0.100000
1020.515625,0.000000,0.000000,0.100000
1020.531250,0.000000,0.000000,0.100000
1020.546875,0.000000,0.000000,0.100000
1020.562500,0.000000,0.000000,0.100000
1020.578125,0.000000,0.000000,0.100000
1020.593750,0.021199,0.021199,0.100000
1020.609375,0.127760,0.127760,0.100000
1020.625000,0.304853,0.304853,0.100000
1020.640625,0.518922,0.518922,0.100000
1020.656250,0.729406,0.729406,0.100000
1020.671875,0.896423,0.896423,0.100000
1020.687500,0.988325,0.988325,0.100000
1020.703125,0.987699,0.987699,0.100000
1020.718750,0.894664,0.894664,0.100000
1020.734375,0.726848,0.726848,0.100000
1020.750000,0.516049,0.516049,0.100000
1020.765625,0.302209,0.302209,0.100000
1020.781250,0.125846,0.125846,0.100000
1020.796875,0.020378,0.020378,0.100000
1020.812500,0.000000,0.000000,0.100000
1020.828125,0.000000,0.000000,0.100000
1020.843750,0.000000,0.000000,0.100000
1020.859375,0.000000,0.000000,0.100000
1020.875000,0.000000,0.000000,0.100000
1020.890625,0.000000,0.000000,0.100000
1020.906250,0.000000,0.000000,0.100000
1020.921875,0.000000,0.000000,0.100000
1020.937500,0.000000,0.000000,0.100000
1020.953125,0.000000,0.000000,0.100000
1020.968750,0.000000,0.000000,0.100000
1020.984375,0.000000,0.000000,0.100000
1021.000000,0.000000,0.000000,0.100000
1021.015625,0.000000,0.000000,0.100000
1021.031250,0.000000,0.000000,0.100000
1021.046875,0.000000,0.000000,0.100000
1021.062500,0.000000,0.000000,0.100000
1021.078125,0.000000,0.000000,0.100000
1021.093750,0.000000,0.000000,0.100000
1021.109375,0.000000,0.000000,0.100000
1021.125000,0.000000,0.000000,0.100000
1021.140625,0.000000,0.000000,0.100000
1021.156250,0.000000,0.000000,0.100000
1021.171875,0.000000,0.000000,0.100000
1021.187500,0.000000,0.000000,0.100000
1021.203125,0.000000,0.000000,0.100000
1021.218750,0.000000,0.000000,0.100000
1021.234375,0.000000,0.000000,0.100000
1021.250000,0.000000,0.000000,0.100000
1021.265625,0.000000,0.000000,0.100000
1021.281250,0.000000,0.000000,0.100000
1021.296875,0.000000,0.000000,0.100000
1021.312500,0.000000,0.000000,0.100000
1021.328125,0.000000,0.000000,0.100000
1021.343750,0.000000,0.000000,0.100000
1021.359375,0.000000,0.000000,0.100000
1021.375000,0.000000,0.000000,0.100000
1021.390625,0.000000,0.000000,0.100000
1021.406250,0.000000,0.000000,0.100000
1021.421875,0.000000,0.000000,0.100000
1021.437500,0.000000,0.000000,0.100000
1021.453125,0.000000,0.000000,0.100000
1021.468750,0.000000,0.000000,0.100000
1021.484375,0.007326,0.007326,0.100000
1021.500000,0.090232,0.090232,0.100000
1021.515625,0.250781,0.250781,0.100000
1021.531250,0.458553,0.458553,0.100000
1021.546875,0.674177,0.674177,0.100000
1021.562500,0.856799,0.856799,0.100000
1021.578125,0.971814,0.971814,0.100000
1021.593750,0.997430,0.997430,0.100000
1021.609375,0.928793,0.928793,0.100000
1021.625000,0.778908,0.778908,0.100000
1021.640625,0.576175,0.576175,0.100000
1021.656250,0.359009,0.359009,0.100000
1021.671875,0.168558,0.168558,0.100000
1021.687500,0.040908,0.040908,0.100000
1021.703125,0.000000,0.000000,0.100000
1021.718750,0.000000,0.000000,0.100000
1021.734375,0.000000,0.000000,0.100000
1021.750000,0.000000,0.000000,0.100000
1021.765625,0.000000,0.000000,0.100000
1021.781250,0.000000,0.000000,0.100000
1021.796875,0.000000,0.000000,0.100000
1021.812500,0.000000,0.000000,0.100000
1021.828125,0.000000,0.000000,0.100000
1021.843750,0.000000,0.000000,0.100000
1021.859375,0.000000,0.000000,0.100000
1021.875000,0.000000,0.000000,0.100000
1021.890625,0.000000,0.000000,0.100000
1021.906250,0.000000,0.000000,0.100000
1021.921875,0.000000,0.000000,0.100000
1021.937500,0.000000,0.000000,0.100000
1021.953125,0.000000,0.000000,0.100000
1021.968750,0.000000,0.000000,0.100000
1021.984375,0.000000,0.000000,0.100000
1022.000000,0.000000,0.000000,0.100000
1022.015625,0.000000,0.000000,0.100000
1022.031250,0.000000,0.000000,0.100000
1022.046875,0.000000,0.000000,0.100000
1022.062500,0.000000,0.000000,0.100000
1022.078125,0.000000,0.000000,0.100000
1022.093750,0.000000,0.000000,0.100000
1022.109375,0.000000,0.000000,0.100000
1022.125000,0.000000,0.000000,0.100000
1022.140625,0.000000,0.000000,0.100000
1022.156250,0.000000,0.000000,0.100000
1022.171875,0.000000,0.000000,0.100000
1022.187500,0.000000,0.000000,0.100000
1022.203125,0.000000,0.000000,0.100000
1022.218750,0.000000,0.000000,0.100000
1022.234375,0.000000,0.000000,0.100000
1022.250000,0.000000,0.000000,0.100000
1022.265625,0.000000,0.000000,0.100000
1022.281250,0.000000,0.000000,0.100000
1022.296875,0.000000,0.000000,0.100000
1022.312500,0.000000,0.000000,0.100000
1022.328125,0.000000,0.000000,0.100000
1022.343750,0.000000,0.000000,0.100000
1022.359375,0.000000,0.000000,0.100000
1022.375000,0.000639,0.000639,0.100000
1022.390625,0.058681,0.058681,0.100000
1022.406250,0.200345,0.200345,0.100000
1022.421875,0.398787,0.398787,0.100000
1022.437500,0.616408,0.616408,0.100000
1022.453125,0.811971,0.811971,0.100000
1022.468750,0.948422,0.948422,0.100000
1022.484375,0.999906,0.999906,0.100000
1022.500000,0.956668,0.956668,0.100000
1022.515625,0.826900,0.826900,0.100000
1022.531250,0.635191,0.635191,0.100000
1022.546875,0.417866,0.417866,0.100000
1022.562500,0.216104,0.216104,0.100000
1022.578125,0.068135,0.068135,0.100000
1022.593750,0.001995,0.001995,0.100000
1022.609375,0.000000,0.000000,0.100000
1022.625000,0.000000,0.000000,0.100000
1022.640625,0.000000,0.000000,0.100000
1022.656250,0.000000,0.000000,0.100000
1022.671875,0.000000,0.000000,0.100000
1022.687500,0.000000,0.000000,0.100000
1022.703125,0.000000,0.000000,0.100000
1022.718750,0.000000,0.000000,0.100000
1022.734375,0.000000,0.000000,0.100000
1022.750000,0.000000,0.000000,0.100000
1022.765625,0.000000,0.000000,0.100000
1022.781250,0.000000,0.000000,0.100000
1022.796875,0.000000,0.000000,0.100000
1022.812500,0.000000,0.000000,0.100000
1022.828125,0.000000,0.000000,0.100000
1022.843750,0.000000,0.000000,0.100000
1022.859375,0.000000,0.000000,0.100000
1022.875000,0.000000,0.000000,0.100000
1022.890625,0.000000,0.000000,0.100000
1022.906250,0.000000,0.000000,0.100000
1022.921875,0.000000,0.000000,0.100000
1022.937500,0.000000,0.000000,0.100000
1022.953125,0.000000,0.000000,0.100000
1022.968750,0.000000,0.000000,0.100000
1022.984375,0.000000,0.000000,0.100000
1023.000000,0.000000,0.000000,0.100000
1023.015625,0.000000,0.000000,0.100000
1023.031250,0.000000,0.000000,0.100000
1023.046875,0.000000,0.000000,0.100000
1023.062500,0.000000,0.000000,0.100000
1023.078125,0.000000,0.000000,0.100000
1023.093750,0.000000,0.000000,0.100000
1023.109375,0.000000,0.000000,0.100000
1023.125000,0.000000,0.000000,0.100000
1023.140625,0.000000,0.000000,0.100000
1023.156250,0.000000,0.000000,0.100000
1023.171875,0.000000,0.000000,0.100000
1023.187500,0.000000,0.000000,0.100000
1023.203125,0.000000,0.000000,0.100000
1023.218750,0.000000,0.000000,0.100000
1023.234375,0.000000,0.000000,0.100000
1023.250000,0.000000,0.000000,0.100000
1023.265625,0.000000,0.000000,0.100000
1023.281250,0.033567,0.033567,0.100000
1023.296875,0.154279,0.154279,0.100000
1023.312500,0.340498,0.340498,0.100000
1023.328125,0.556940,0.556940,0.100000
1023.343750,0.762593,0.762593,0.100000
1023.359375,0.918489,0.918489,0.100000
1023.375000,0.995090,0.995090,0.100000
1023.390625,0.977882,0.977882,0.100000
1023.406250,0.870124,0.870124,0.100000
1023.421875,0.692235,0.692235,0.100000
1023.437500,0.477921,0.477921,0.100000
1023.453125,0.267791,0.267791,0.100000
1023.468750,0.101660,0.101660,0.100000
1023.484375,0.011006,0.011006,0.100000
1023.500000,0.000000,0.000000,0.100000
1023.515625,0.000000,0.000000,0.100000
1023.531250,0.000000,0.000000,0.100000
1023.546875,0.000000,0.000000,0.100000
1023.562500,0.000000,0.000000,0.100000
1023.578125,0.000000,0.000000,0.100000
1023.593750,0.000000,0.000000,0.100000
1023.609375,0.000000,0.000000,0.100000
1023.625000,0.000000,0.000000,0.100000
1023.640625,0.000000,0.000000,0.100000
1023.656250,0.000000,0.000000,0.100000
1023.671875,0.000000,0.000000,0.100000
1023.687500,0.000000,0.000000,0.100000
1023.703125,0.000000,0.000000,0.100000
1023.718750,0.000000,0.000000,0.100000
1023.734375,0.000000,0.000000,0.100000
1023.750000,0.000000,0.000000,0.100000
1023.765625,0.000000,0.000000,0.100000
1023.781250,0.000000,0.000000,0.100000
1023.796875,0.000000,0.000000,0.100000
1023.812500,0.000000,0.000000,0.100000
1023.828125,0.000000,0.000000,0.100000
1023.843750,0.000000,0.000000,0.100000
1023.859375,0.000000,0.000000,0.100000
1023.875000,0.000000,0.000000,0.100000
1023.890625,0.000000,0.000000,0.100000
1023.906250,0.000000,0.000000,0.100000
1023.921875,0.000000,0.000000,0.100000
1023.937500,0.000000,0.000000,0.100000
1023.953125,0.000000,0.000000,0.100000
1023.968750,0.000000,0.000000,0.100000
1023.984375,0.000000,0.000000,0.100000
1024.000000,0.000000,0.000000,0.100000
1024.015625,0.000000,0.000000,0.100000
1024.031250,0.000000,0.000000,0.100000
1024.046875,0.000000,0.000000,0.100000
1024.062500,0.000000,0.000000,0.100000
1024.078125,0.000000,0.000000,0.100000
1024.093750,0.000000,0.000000,0.100000
1024.109375,0.000000,0.000000,0.100000
1024.125000,0.000000,0.000000,0.100000
1024.140625,0.000000,0.000000,0.100000
1024.156250,0.000000,0.000000,0.100000
1024.171875,0.015256,0.015256,0.100000
1024.187500,0.113256,0.113256,0.100000
1024.203125,0.284536,0.284536,0.100000
1024.218750,0.496642,0.496642,0.100000
1024.234375,0.709385,0.709385,0.100000
1024.250000,0.882453,0.882453,0.100000
1024.265625,0.983054,0.983054,0.100000
1024.281250,0.992126,0.992126,0.100000
1024.296875,0.907949,0.907949,0.100000
1024.312500,0.746475,0.746475,0.100000
1024.328125,0.538298,0.538298,0.100000
1024.343750,0.322865,0.322865,0.100000
1024.359375,0.140995,0.140995,0.100000
1024.375000,0.027150,0.027150,0.100000
1024.390625,0.000000,0.000000,0.100000
1024.406250,0.000000,0.000000,0.100000
1024.421875,0.000000,0.000000,0.100000
1024.437500,0.000000,0.000000,0.100000
1024.453125,0.000000,0.000000,0.100000
1024.468750,0.000000,0.000000,0.100000
1024.484375,0.000000,0.000000,0.100000
1024.500000,0.000000,0.000000,0.100000
1024.515625,0.000000,0.000000,0.100000
1024.531250,0.000000,0.000000,0.100000
1024.546875,0.000000,0.000000,0.100000
1024.562500,0.000000,0.000000,0.100000
1024.578125,0.000000,0.000000,0.100000
1024.593750,0.000000,0.000000,0.100000
1024.609375,0.000000,0.000000,0.100000
1024.625000,0.000000,0.000000,0.100000
1024.640625,0.000000,0.000000,0.100000
1024.656250,0.000000,0.000000,0.100000
1024.671875,0.000000,0.000000,0.100000
1024.687500,0.000000,0.000000,0.100000
1024.703125,0.000000,0.000000,0.100000
1024.718750,0.000000,0.000000,0.100000
1024.734375,0.000000,0.000000,0.100000
1024.750000,0.000000,0.000000,0.100000
1024.765625,0.000000,0.000000,0.100000
1024.781250,0.000000,0.000000,0.100000
1024.796875,0.000000,0.000000,0.100000
1024.812500,0.000000,0.000000,0.100000
1024.828125,0.000000,0.000000,0.100000
1024.843750,0.000000,0.000000,0.100000
1024.859375,0.000000,0.000000,0.100000
1024.875000,0.000000,0.000000,0.100000
1024.890625,0.000000,0.000000,0.100000
1024.906250,0.000000,0.000000,0.100000
1024.921875,0.000000,0.000000,0.100000
1024.937500,0.000000,0.000000,0.100000
1024.953125,0.000000,0.000000,0.100000
1024.968750,0.000000,0.000000,0.100000
1024.984375,0.000000,0.000000,0.100000
1025.000000,0.000000,0.000000,0.100000
1025.015625,0.000000,0.000000,0.100000
1025.031250,0.000000,0.000000,0.100000
1025.046875,0.000000,0.000000,0.100000
1025.062500,0.004016,0.004016,0.100000
1025.078125,0.077874,0.077874,0.100000
1025.093750,0.231716,0.231716,0.100000
1025.109375,0.436393,0.436393,0.100000
1025.125000,0.653122,0.653122,0.100000
1025.140625,0.840838,0.840838,0.100000
1025.156250,0.963972,0.963972,0.100000
1025.171875,0.999192,0.999192,0.100000
1025.187500,0.939825,0.939825,0.100000
1025.203125,0.797120,0.797120,0.100000
1025.218750,0.598117,0.598117,0.100000
1025.234375,0.380522,0.380522,0.100000
1025.250000,0.185567,0.185567,0.100000
1025.265625,0.050190,0.050190,0.100000
1025.281250,0.000043,0.000043,0.100000
1025.296875,0.000000,0.000000,0.100000
1025.312500,0.000000,0.000000,0.100000
1025.328125,0.000000,0.000000,0.100000
1025.343750,0.000000,0.000000,0.100000
1025.359375,0.000000,0.000000,0.100000
1025.375000,0.000000,0.000000,0.100000
1025.390625,0.000000,0.000000,0.100000
1025.406250,0.000000,0.000000,0.100000
1025.421875,0.000000,0.000000,0.100000
1025.437500,0.000000,0.000000,0.100000
1025.453125,0.000000,0.000000,0.100000
1025.468750,0.000000,0.000000,0.100000
1025.484375,0.000000,0.000000,0.100000
1025.500000,0.000000,0.000000,0.100000
1025.515625,0.000000,0.000000,0.100000
1025.531250,0.000000,0.000000,0.100000
1025.546875,0.000000,0.000000,0.100000
1025.562500,0.000000,0.000000,0.100000
1025.578125,0.000000,0.000000,0.100000
1025.593750,0.000000,0.000000,0.100000
1025.609375,0.000000,0.000000,0.100000
1025.625000,0.000000,0.000000,0.100000
1025.640625,0.000000,0.000000,0.100000
1025.656250,0.000000,0.000000,0.100000
1025.671875,0.000000,0.000000,0.100000
1025.687500,0.000000,0.000000,0.100000
1025.703125,0.000000,0.000000,0.100000
1025.718750,0.000000,0.000000,0.100000
1025.734375,0.000000,0.000000,0.100000
1025.750000,0.000000,0.000000,0.100000
1025.765625,0.000000,0.000000,0.100000
1025.781250,0.000000,0.000000,0.100000
1025.796875,0.000000,0.000000,0.100000
1025.812500,0.000000,0.000000,0.100000
1025.828125,0.000000,0.000000,0.100000
1025.843750,0.000000,0.000000,0.100000
1025.859375,0.000000,0.000000,0.100000
1025.875000,0.000000,0.000000,0.100000
1025.890625,0.000000,0.000000,0.100000
1025.906250,0.000000,0.000000,0.100000
1025.921875,0.000000,0.000000,0.100000
1025.937500,0.000000,0.000000,0.100000
1025.953125,0.000009,0.000009,0.100000
1025.968750,0.048648,0.048648,0.100000
1025.984375,0.182809,0.182809,0.100000
1026.000000,0.377072,0.377072,0.100000
1026.015625,0.594627,0.594627,0.100000
1026.031250,0.794252,0.794252,0.100000
1026.046875,0.938122,0.938122,0.100000
1026.062500,0.998977,0.998977,0.100000
1026.078125,0.965286,0.965286,0.100000
1026.093750,0.843432,0.843432,0.100000
1026.109375,0.656504,0.656504,0.100000
1026.125000,0.439922,0.439922,0.100000
1026.140625,0.234724,0.234724,0.100000
1026.156250,0.079790,0.079790,0.100000
1026.171875,0.004478,0.004478,0.100000
1026.187500,0.000000,0.000000,0.100000
1026.203125,0.000000,0.000000,0.100000
1026.218750,0.000000,0.000000,0.100000
1026.234375,0.000000,0.000000,0.100000
1026.250000,0.000000,0.000000,0.100000
1026.265625,0.000000,0.000000,0.100000
1026.281250,0.000000,0.000000,0.100000
1026.296875,0.000000,0.000000,0.100000
1026.312500,0.000000,0.000000,0.100000
1026.328125,0.000000,0.000000,0.100000
1026.343750,0.000000,0.000000,0.100000
1026.359375,0.000000,0.000000,0.100000
1026.375000,0.000000,0.000000,0.100000
1026.390625,0.000000,0.000000,0.100000
1026.406250,0.000000,0.000000,0.100000
1026.421875,0.000000,0.000000,0.100000
1026.437500,0.000000,0.000000,0.100000
1026.453125,0.000000,0.000000,0.100000
1026.468750,0.000000,0.000000,0.100000
1026.484375,0.000000,0.000000,0.100000
1026.500000,0.000000,0.000000,0.100000
1026.515625,0.000000,0.000000,0.100000
1026.531250,0.000000,0.000000,0.100000
1026.546875,0.000000,0.000000,0.100000
1026.562500,0.000000,0.000000,0.100000
1026.578125,0.000000,0.000000,0.100000
1026.593750,0.000000,0.000000,0.100000
1026.609375,0.000000,0.000000,0.100000
1026.625000,0.000000,0.000000,0.100000
1026.640625,0.000000,0.000000,0.100000
1026.656250,0.000000,0.000000,0.100000
1026.671875,0.000000,0.000000,0.100000
1026.687500,0.000000,0.000000,0.100000
1026.703125,0.000000,0.000000,0.100000
1026.718750,0.000000,0.000000,0.100000
1026.734375,0.000000,0.000000,0.100000
1026.750000,0.000000,0.000000,0.100000
1026.765625,0.000000,0.000000,0.100000
1026.781250,0.000000,0.000000,0.100000
1026.796875,0.000000,0.000000,0.100000
1026.812500,0.000000,0.000000,0.100000
1026.828125,0.000000,0.000000,0.100000
1026.843750,0.000000,0.000000,0.100000
1026.859375,0.026006,0.026006,0.100000
1026.875000,0.138529,0.138529,0.100000
1026.890625,0.319544,0.319544,0.100000
1026.906250,0.534751,0.534751,0.100000
1026.921875,0.743374,0.743374,0.100000
1026.937500,0.905883,0.905883,0.100000
1026.953125,0.991484,0.991484,0.100000
1026.968750,0.983960,0.983960,0.100000
1026.984375,0.884734,0.884734,0.100000
1027.000000,0.712609,0.712609,0.100000
1027.015625,0.500199,0.500199,0.100000
1027.031250,0.287751,0.287751,0.100000
1027.046875,0.115520,0.115520,0.100000
1027.062500,0.016140,0.016140,0.100000
1027.078125,0.000000,0.000000,0.100000
1027.093750,0.000000,0.000000,0.100000
1027.109375,0.000000,0.000000,0.100000
1027.125000,0.000000,0.000000,0.100000
1027.140625,0.000000,0.000000,0.100000
1027.156250,0.000000,0.000000,0.100000
1027.171875,0.000000,0.000000,0.100000
1027.187500,0.000000,0.000000,0.100000
1027.203125,0.000000,0.000000,0.100000
1027.218750,0.000000,0.000000,0.100000
1027.234375,0.000000,0.000000,0.100000
1027.250000,0.000000,0.000000,0.100000
1027.265625,0.000000,0.000000,0.100000
1027.281250,0.000000,0.000000,0.100000
1027.296875,0.000000,0.000000,0.100000
1027.312500,0.000000,0.000000,0.100000
1027.328125,0.000000,0.000000,0.100000
1027.343750,0.000000,0.000000,0.100000
1027.359375,0.000000,0.000000,0.100000
1027.375000,0.000000,0.000000,0.100000
1027.390625,0.000000,0.000000,0.100000
1027.406250,0.000000,0.000000,0.100000
1027.421875,0.000000,0.000000,0.100000
1027.437500,0.000000,0.000000,0.100000
1027.453125,0.000000,0.000000,0.100000
1027.468750,0.000000,0.000000,0.100000
1027.484375,0.000000,0.000000,0.100000
1027.500000,0.000000,0.000000,0.100000
1027.515625,0.000000,0.000000,0.100000
1027.531250,0.000000,0.000000,0.100000
1027.546875,0.000000,0.000000,0.100000
1027.562500,0.000000,0.000000,0.100000
1027.578125,0.000000,0.000000,0.100000
1027.593750,0.000000,0.000000,0.100000
1027.609375,0.000000,0.000000,0.100000
1027.625000,0.000000,0.000000,0.100000
1027.640625,0.000000,0.000000,0.100000
1027.656250,0.000000,0.000000,0.100000
1027.671875,0.000000,0.000000,0.100000
1027.687500,0.000000,0.000000,0.100000
1027.703125,0.000000,0.000000,0.100000
1027.718750,0.000000,0.000000,0.100000
1027.734375,0.000000,0.000000,0.100000
1027.750000,0.010277,0.010277,0.100000
1027.765625,0.099520,0.099520,0.100000
1027.781250,0.264647,0.264647,0.100000
1027.796875,0.474369,0.474369,0.100000
1027.812500,0.688947,0.688947,0.100000
1027.828125,0.867723,0.867723,0.100000
1027.843750,0.976823,0.976823,0.100000
1027.859375,0.995575,0.995575,0.100000
1027.875000,0.920425,0.920425,0.100000
1027.890625,0.765613,0.765613,0.100000
1027.906250,0.560472,0.560472,0.100000
1027.921875,0.343873,0.343873,0.100000
1027.937500,0.156857,0.156857,0.100000
1027.953125,0.034860,0.034860,0.100000
1027.968750,0.000000,0.000000,0.100000
1027.984375,0.000000,0.000000,0.100000
1028.000000,0.000000,0.000000,0.100000
1028.015625,0.000000,0.000000,0.100000
1028.031250,0.000000,0.000000,0.100000
1028.046875,0.000000,0.000000,0.100000
1028.062500,0.000000,0.000000,0.100000
1028.078125,0.000000,0.000000,0.100000
1028.093750,0.000000,0.000000,0.100000
1028.109375,0.000000,0.000000,0.100000
1028.125000,0.000000,0.000000,0.100000
1028.140625,0.000000,0.000000,0.100000
1028.156250,0.000000,0.000000,0.100000
1028.171875,0.000000,0.000000,0.100000
1028.187500,0.000000,0.000000,0.100000
1028.203125,0.000000,0.000000,0.100000
1028.218750,0.000000,0.000000,0.100000
1028.234375,0.000000,0.000000,0.100000
1028.250000,0.000000,0.000000,0.100000
1028.265625,0.000000,0.000000,0.100000
1028.281250,0.000000,0.000000,0.100000
1028.296875,0.000000,0.000000,0.100000
1028.312500,0.000000,0.000000,0.100000
1028.328125,0.000000,0.000000,0.100000
1028.343750,0.000000,0.000000,0.100000
1028.359375,0.000000,0.000000,0.100000
1028.375000,0.000000,0.000000,0.100000
1028.390625,0.000000,0.000000,0.100000
1028.406250,0.000000,0.000000,0.100000
1028.421875,0.000000,0.000000,0.100000
1028.437500,0.000000,0.000000,0.100000
1028.453125,0.000000,0.000000,0.100000
1028.468750,0.000000,0.000000,0.100000
1028.484375,0.000000,0.000000,0.100000
1028.500000,0.000000,0.000000,0.100000
1028.515625,0.000000,0.000000,0.100000
1028.531250,0.000000,0.000000,0.100000
1028.546875,0.000000,0.000000,0.100000
1028.562500,0.000000,0.000000,0.100000
1028.578125,0.000000,0.000000,0.100000
1028.593750,0.000000,0.000000,0.100000
1028.609375,0.000000,0.000000,0.100000
1028.625000,0.000000,0.000000,0.100000
1028.640625,0.001690,0.001690,0.100000
1028.656250,0.066353,0.066353,0.100000
1028.671875,0.213184,0.213184,0.100000
1028.687500,0.414360,0.414360,0.100000
1028.703125,0.631764,0.631764,0.100000
1028.718750,0.824200,0.824200,0.100000
1028.734375,0.955208,0.955208,0.100000
1028.750000,0.999962,0.999962,0.100000
1028.765625,0.949984,0.949984,0.100000
1028.781250,0.814742,0.814742,0.100000
1028.796875,0.619863,0.619863,0.100000
1028.812500,0.402273,0.402273,0.100000
1028.828125,0.203200,0.203200,0.100000
1028.843750,0.060364,0.060364,0.100000
1028.859375,0.000831,0.000831,0.100000
1028.875000,0.000000,0.000000,0.100000
1028.890625,0.000000,0.000000,0.100000
1028.906250,0.000000,0.000000,0.100000
1028.921875,0.000000,0.000000,0.100000
1028.937500,0.000000,0.000000,0.100000
1028.953125,0.000000,0.000000,0.100000
1028.968750,0.000000,0.000000,0.100000
1028.984375,0.000000,0.000000,0.100000
1029.000000,0.000000,0.000000,0.100000
1029.015625,0.000000,0.000000,0.100000
1029.031250,0.000000,0.000000,0.100000
1029.046875,0.000000,0.000000,0.100000
1029.062500,0.000000,0.000000,0.100000
1029.078125,0.000000,0.000000,0.100000
1029.093750,0.000000,0.000000,0.100000
1029.109375,0.000000,0.000000,0.100000
1029.125000,0.000000,0.000000,0.100000
1029.140625,0.000000,0.000000,0.100000
1029.156250,0.000000,0.000000,0.100000
1029.171875,0.000000,0.000000,0.100000
1029.187500,0.000000,0.000000,0.100000
1029.203125,0.000000,0.000000,0.100000
1029.218750,0.000000,0.000000,0.100000
1029.234375,0.000000,0.000000,0.100000
1029.250000,0.000000,0.000000,0.100000
1029.265625,0.000000,0.000000,0.100000
1029.281250,0.000000,0.000000,0.100000
1029.296875,0.000000,0.000000,0.100000
1029.312500,0.000000,0.000000,0.100000
1029.328125,0.000000,0.000000,0.100000
1029.343750,0.000000,0.000000,0.100000
1029.359375,0.000000,0.000000,0.100000
1029.375000,0.000000,0.000000,0.100000
1029.390625,0.000000,0.000000,0.100000
1029.406250,0.000000,0.000000,0.100000
1029.421875,0.000000,0.000000,0.100000
1029.437500,0.000000,0.000000,0.100000
1029.453125,0.000000,0.000000,0.100000
1029.468750,0.000000,0.000000,0.100000
1029.484375,0.000000,0.000000,0.100000
1029.500000,0.000000,0.000000,0.100000
1029.515625,0.000000,0.000000,0.100000
1029.531250,0.000000,0.000000,0.100000
1029.546875,0.039511,0.039511,0.100000
1029.562500,0.165904,0.165904,0.100000
1029.578125,0.355601,0.355601,0.100000
1029.593750,0.572658,0.572658,0.100000
1029.609375,0.775949,0.775949,0.100000
1029.625000,0.926953,0.926953,0.100000
1029.640625,0.997057,0.997057,0.100000
1029.656250,0.972979,0.972979,0.100000
1029.671875,0.859281,0.859281,0.100000
1029.687500,0.677507,0.677507,0.100000
1029.703125,0.462098,0.462098,0.100000
1029.718750,0.253871,0.253871,0.100000
1029.734375,0.092280,0.092280,0.100000
1029.750000,0.007945,0.007945,0.100000
1029.765625,0.000000,0.000000,0.100000
1029.781250,0.000000,0.000000,0.100000
1029.796875,0.000000,0.000000,0.100000
1029.812500,0.000000,0.000000,0.100000
1029.828125,0.000000,0.000000,0.100000
1029.843750,0.000000,0.000000,0.100000
1029.859375,0.000000,0.000000,0.100000
1029.875000,0.000000,0.000000,0.100000
1029.890625,0.000000,0.000000,0.100000
1029.906250,0.000000,0.000000,0.100000
1029.921875,0.000000,0.000000,0.100000
1029.937500,0.000000,0.000000,0.100000
1029.953125,0.000000,0.000000,0.100000
1029.968750,0.000000,0.000000,0.100000
1029.984375,0.000000,0.000000,0.100000
1030.000000,0.000000,0.000000,0.100000
1030.015625,0.041183,0.041183,0.100000
1030.031250,0.157948,0.157948,0.100000
1030.046875,0.331060,0.331060,0.100000
1030.062500,0.532001,0.532001,0.100000
1030.078125,0.727671,0.727671,0.100000
1030.093750,0.885837,0.885837,0.100000
1030.109375,0.980442,0.980442,0.100000
1030.125000,0.995904,0.995904,0.100000
1030.140625,0.929674,0.929674,0.100000
1030.156250,0.792663,0.792663,0.100000
1030.171875,0.607441,0.607441,0.100000
1030.187500,0.404520,0.404520,0.100000
1030.203125,0.217328,0.217328,0.100000
1030.218750,0.076701,0.076701,0.100000
1030.234375,0.005805,0.005805,0.100000
1030.250000,0.000000,0.000000,0.100000
1030.265625,0.000000,0.000000,0.100000
1030.281250,0.000000,0.000000,0.100000
1030.296875,0.000000,0.000000,0.100000
1030.312500,0.000000,0.000000,0.100000
1030.328125,0.000000,0.000000,0.100000
1030.343750,0.000000,0.000000,0.100000
1030.359375,0.000000,0.000000,0.100000
1030.375000,0.000000,0.000000,0.100000
1030.390625,0.000000,0.000000,0.100000
1030.406250,0.000000,0.000000,0.100000
1030.421875,0.000000,0.000000,0.100000
1030.437500,0.000000,0.000000,0.100000
1030.453125,0.000000,0.000000,0.100000
1030.468750,0.000000,0.000000,0.100000
1030.484375,0.000000,0.000000,0.100000
1030.500000,0.000000,0.000000,0.100000
1030.515625,0.000000,0.000000,0.100000
1030.531250,0.000000,0.000000,0.100000
1030.546875,0.000000,0.000000,0.100000
1030.562500,0.000000,0.000000,0.100000
1030.578125,0.000000,0.000000,0.100000
1030.593750,0.000000,0.000000,0.100000
1030.609375,0.000000,0.000000,0.100000
1030.625000,0.000000,0.000000,0.100000
1030.640625,0.000000,0.000000,0.100000
1030.656250,0.000000,0.000000,0.100000
1030.671875,0.000000,0.000000,0.100000
1030.687500,0.000000,0.000000,0.100000
1030.703125,0.000000,0.000000,0.100000
1030.718750,0.000000,0.000000,0.100000
1030.734375,0.000000,0.000000,0.100000
1030.750000,0.000000,0.000000,0.100000
1030.765625,0.000000,0.000000,0.100000
1030.781250,0.000000,0.000000,0.100000
1030.796875,0.000000,0.000000,0.100000
1030.812500,0.000000,0.000000,0.100000
1030.828125,0.000000,0.000000,0.100000
1030.843750,0.000000,0.000000,0.100000
1030.859375,0.000000,0.000000,0.100000
1030.875000,0.000000,0.000000,0.100000
1030.890625,0.000000,0.000000,0.100000
1030.906250,0.000000,0.000000,0.100000
1030.921875,0.000000,0.000000,0.100000
1030.937500,0.000000,0.000000,0.100000
1030.953125,0.000000,0.000000,0.100000
1030.968750,0.010707,0.010707,0.100000
1030.984375,0.091911,0.091911,0.100000
1031.000000,0.240341,0.240341,0.100000
1031.015625,0.431544,0.431544,0.100000
1031.031250,0.634025,0.634025,0.100000
1031.046875,0.814427,0.814427,0.100000
1031.062500,0.943033,0.943033,0.100000
1031.078125,0.998658,0.998658,0.100000
1031.093750,0.972137,0.972137,0.100000
1031.109375,0.867840,0.867840,0.100000
1031.125000,0.702949,0.702949,0.100000
1031.140625,0.504625,0.504625,0.100000
1031.156250,0.305539,0.305539,0.100000
1031.171875,0.138487,0.138487,0.100000
1031.187500,0.030988,0.030988,0.100000
1031.203125,0.000000,0.000000,0.100000
1031.218750,0.000000,0.000000,0.100000
1031.234375,0.000000,0.000000,0.100000
1031.250000,0.000000,0.000000,0.100000
1031.265625,0.000000,0.000000,0.100000
1031.281250,0.000000,0.000000,0.100000
1031.296875,0.000000,0.000000,0.100000
1031.312500,0.000000,0.000000,0.100000
1031.328125,0.000000,0.000000,0.100000
1031.343750,0.000000,0.000000,0.100000
1031.359375,0.000000,0.000000,0.100000
1031.375000,0.000000,0.000000,0.100000
1031.390625,0.000000,0.000000,0.100000
1031.406250,0.000000,0.000000,0.100000
1031.421875,0.000000,0.000000,0.100000
1031.437500,0.000000,0.000000,0.100000
1031.453125,0.000000,0.000000,0.100000
1031.468750,0.000000,0.000000,0.100000
1031.484375,0.000000,0.000000,0.100000
1031.500000,0.000000,0.000000,0.100000
1031.515625,0.000000,0.000000,0.100000
1031.531250,0.000000,0.000000,0.100000
1031.546875,0.000000,0.000000,0.100000
1031.562500,0.000000,0.000000,0.100000
1031.578125,0.000000,0.000000,0.100000
1031.593750,0.000000,0.000000,0.100000
1031.609375,0.000000,0.000000,0.100000
1031.625000,0.000000,0.000000,0.100000
1031.640625,0.000000,0.000000,0.100000
1031.656250,0.000000,0.000000,0.100000
1031.671875,0.000000,0.000000,0.100000
1031.687500,0.000000,0.000000,0.100000
1031.703125,0.000000,0.000000,0.100000
1031.718750,0.000000,0.000000,0.100000
1031.734375,0.000000,0.000000,0.100000
1031.750000,0.000000,0.000000,0.100000
1031.765625,0.000000,0.000000,0.100000
1031.781250,0.000000,0.000000,0.100000
1031.796875,0.000000,0.000000,0.100000
1031.812500,0.000000,0.000000,0.100000
1031.828125,0.000000,0.000000,0.100000
1031.843750,0.000000,0.000000,0.100000
1031.859375,0.000000,0.000000,0.100000
1031.875000,0.000000,0.000000,0.100000
1031.890625,0.000000,0.000000,0.100000
1031.906250,0.000000,0.000000,0.100000
1031.921875,0.000009,0.000009,0.100000
1031.937500,0.042370,0.042370,0.100000
1031.953125,0.160117,0.160117,0.100000
1031.968750,0.333855,0.333855,0.100000
1031.984375,0.534961,0.534961,0.100000
1032.000000,0.730308,0.730308,0.100000
1032.015625,0.887717,0.887717,0.100000
1032.031250,0.981255,0.981255,0.100000
1032.046875,0.995516,0.995516,0.100000
1032.062500,0.928149,0.928149,0.100000
1032.078125,0.790253,0.790253,0.100000
1032.093750,0.604542,0.604542,0.100000
1032.109375,0.401610,0.401610,0.100000
1032.125000,0.214886,0.214886,0.100000
1032.140625,0.075130,0.075130,0.100000
1032.156250,0.005363,0.005363,0.100000
1032.171875,0.000000,0.000000,0.100000
1032.187500,0.000000,0.000000,0.100000
1032.203125,0.000000,0.000000,0.100000
1032.218750,0.000000,0.000000,0.100000
1032.234375,0.000000,0.000000,0.100000
1032.250000,0.000000,0.000000,0.100000
1032.265625,0.000000,0.000000,0.100000
1032.281250,0.000000,0.000000,0.100000
1032.296875,0.000000,0.000000,0.100000
1032.312500,0.000000,0.000000,0.100000
1032.328125,0.000000,0.000000,0.100000
1032.343750,0.000000,0.000000,0.100000
1032.359375,0.000000,0.000000,0.100000
1032.375000,0.000000,0.000000,0.100000
1032.390625,0.000000,0.000000,0.100000
1032.406250,0.000000,0.000000,0.100000
1032.421875,0.000000,0.000000,0.100000
1032.437500,0.000000,0.000000,0.100000
1032.453125,0.000000,0.000000,0.100000
1032.468750,0.000000,0.000000,0.100000
1032.484375,0.000000,0.000000,0.100000
1032.500000,0.000000,0.000000,0.100000
1032.515625,0.000000,0.000000,0.100000
1032.531250,0.000000,0.000000,0.100000
1032.546875,0.000000,0.000000,0.100000
1032.562500,0.000000,0.000000,0.100000
1032.578125,0.000000,0.000000,0.100000
1032.593750,0.000000,0.000000,0.100000
1032.609375,0.000000,0.000000,0.100000
1032.625000,0.000000,0.000000,0.100000
1032.640625,0.000000,0.000000,0.100000
1032.656250,0.000000,0.000000,0.100000
1032.671875,0.000000,0.000000,0.100000
1032.687500,0.000000,0.000000,0.100000
1032.703125,0.000000,0.000000,0.100000
1032.718750,0.000000,0.000000,0.100000
1032.734375,0.000000,0.000000,0.100000
1032.750000,0.000000,0.000000,0.100000
1032.765625,0.000000,0.000000,0.100000
1032.781250,0.000000,0.000000,0.100000
1032.796875,0.000000,0.000000,0.100000
1032.812500,0.000000,0.000000,0.100000
1032.828125,0.000000,0.000000,0.100000
1032.843750,0.000000,0.000000,0.100000
1032.859375,0.000000,0.000000,0.100000
1032.875000,0.000000,0.000000,0.100000
1032.890625,0.011326,0.011326,0.100000
1032.906250,0.093632,0.093632,0.100000
1032.921875,0.242880,0.242880,0.100000
1032.937500,0.434484,0.434484,0.100000
1032.953125,0.636880,0.636880,0.100000
1032.968750,0.816728,0.816728,0.100000
1032.984375,0.944401,0.944401,0.100000
1033.000000,0.998866,0.998866,0.100000
1033.015625,0.971152,0.971152,0.100000
1033.031250,0.865825,0.865825,0.100000
1033.046875,0.700234,0.700234,0.100000
1033.062500,0.501658,0.501658,0.100000
1033.078125,0.302810,0.302810,0.100000
1033.093750,0.136444,0.136444,0.100000
1033.109375,0.029968,0.029968,0.100000
1033.125000,0.000000,0.000000,0.100000
1033.140625,0.000000,0.000000,0.100000
1033.156250,0.000000,0.000000,0.100000
1033.171875,0.000000,0.000000,0.100000
1033.187500,0.000000,0.000000,0.100000
1033.203125,0.000000,0.000000,0.100000
1033.218750,0.000000,0.000000,0.100000
1033.234375,0.000000,0.000000,0.100000
1033.250000,0.000000,0.000000,0.100000
1033.265625,0.000000,0.000000,0.100000
1033.281250,0.000000,0.000000,0.100000
1033.296875,0.000000,0.000000,0.100000
1033.312500,0.000000,0.000000,0.100000
1033.328125,0.000000,0.000000,0.100000
1033.343750,0.000000,0.000000,0.100000
1033.359375,0.000000,0.000000,0.100000
1033.375000,0.000000,0.000000,0.100000
1033.390625,0.000000,0.000000,0.100000
1033.406250,0.000000,0.000000,0.100000
1033.421875,0.000000,0.000000,0.100000
1033.437500,0.000000,0.000000,0.100000
1033.453125,0.000000,0.000000,0.100000
1033.468750,0.000000,0.000000,0.100000
1033.484375,0.000000,0.000000,0.100000
1033.500000,0.000000,0.000000,0.100000
1033.515625,0.000000,0.000000,0.100000
1033.531250,0.000000,0.000000,0.100000
1033.546875,0.000000,0.000000,0.100000
1033.562500,0.000000,0.000000,0.100000
1033.578125,0.000000,0.000000,0.100000
1033.593750,0.000000,0.000000,0.100000
1033.609375,0.000000,0.000000,0.100000
1033.625000,0.000000,0.000000,0.100000
1033.640625,0.000000,0.000000,0.100000
1033.656250,0.000000,0.000000,0.100000
1033.671875,0.000000,0.000000,0.100000
1033.687500,0.000000,0.000000,0.100000
1033.703125,0.000000,0.000000,0.100000
1033.718750,0.000000,0.000000,0.100000
1033.734375,0.000000,0.000000,0.100000
1033.750000,0.000000,0.000000,0.100000
1033.765625,0.000000,0.000000,0.100000
1033.781250,0.000000,0.000000,0.100000
1033.796875,0.000000,0.000000,0.100000
1033.812500,0.000000,0.000000,0.100000
1033.828125,0.000000,0.000000,0.100000
1033.843750,0.000035,0.000035,0.100000
1033.859375,0.043573,0.043573,0.100000
1033.875000,0.162299,0.162299,0.100000
1033.890625,0.336655,0.336655,0.100000
1033.906250,0.537920,0.537920,0.100000
1033.921875,0.732937,0.732937,0.100000
1033.937500,0.889583,0.889583,0.100000
1033.953125,0.982051,0.982051,0.100000
1033.968750,0.995111,0.995111,0.100000
1033.984375,0.926610,0.926610,0.100000
1034.000000,0.787832,0.787832,0.100000
1034.015625,0.601640,0.601640,0.100000
1034.031250,0.398704,0.398704,0.100000
1034.046875,0.212454,0.212454,0.100000
1034.062500,0.073573,0.073573,0.100000
1034.078125,0.004938,0.004938,0.100000
1034.093750,0.000000,0.000000,0.100000
1034.109375,0.000000,0.000000,0.100000
1034.125000,0.000000,0.000000,0.100000
1034.140625,0.000000,0.000000,0.100000
1034.156250,0.000000,0.000000,0.100000
1034.171875,0.000000,0.000000,0.100000
1034.187500,0.000000,0.000000,0.100000
1034.203125,0.000000,0.000000,0.100000
1034.218750,0.000000,0.000000,0.100000
1034.234375,0.000000,0.000000,0.100000
1034.250000,0.000000,0.000000,0.100000
1034.265625,0.000000,0.000000,0.100000
1034.281250,0.000000,0.000000,0.100000
1034.296875,0.000000,0.000000,0.100000
1034.312500,0.000000,0.000000,0.100000
1034.328125,0.000000,0.000000,0.100000
1034.343750,0.000000,0.000000,0.100000
1034.359375,0.000000,0.000000,0.100000
1034.375000,0.000000,0.000000,0.100000
1034.390625,0.000000,0.000000,0.100000
1034.406250,0.000000,0.000000,0.100000
1034.421875,0.000000,0.000000,0.100000
1034.437500,0.000000,0.000000,0.100000
1034.453125,0.000000,0.000000,0.100000
1034.468750,0.000000,0.000000,0.100000
1034.484375,0.000000,0.000000,0.100000
1034.500000,0.000000,0.000000,0.100000
1034.515625,0.000000,0.000000,0.100000
1034.531250,0.000000,0.000000,0.100000
1034.546875,0.000000,0.000000,0.100000
1034.562500,0.000000,0.000000,0.100000
1034.578125,0.000000,0.000000,0.100000
1034.593750,0.000000,0.000000,0.100000
1034.609375,0.000000,0.000000,0.100000
1034.625000,0.000000,0.000000,0.100000
1034.640625,0.000000,0.000000,0.100000
1034.656250,0.000000,0.000000,0.100000
1034.671875,0.000000,0.000000,0.100000
1034.687500,0.000000,0.000000,0.100000
1034.703125,0.000000,0.000000,0.100000
1034.718750,0.000000,0.000000,0.100000
1034.734375,0.000000,0.000000,0.100000
1034.750000,0.000000,0.000000,0.100000
1034.765625,0.000000,0.000000,0.100000
1034.781250,0.000000,0.000000,0.100000
1034.796875,0.000000,0.000000,0.100000
1034.812500,0.011963,0.011963,0.100000
1034.828125,0.095368,0.095368,0.100000
1034.843750,0.245429,0.245429,0.100000
1034.859375,0.437426,0.437426,0.100000
1034.875000,0.639731,0.639731,0.100000
1034.890625,0.819018,0.819018,0.100000
1034.906250,0.945752,0.945752,0.100000
1034.921875,0.999057,0.999057,0.100000
1034.937500,0.970151,0.970151,0.100000
1034.953125,0.863796,0.863796,0.100000
1034.968750,0.697512,0.697512,0.100000
1034.984375,0.498692,0.498692,0.100000
1035.000000,0.300087,0.300087,0.100000
1035.015625,0.134414,0.134414,0.100000
1035.031250,0.028965,0.028965,0.100000
1035.046875,0.000000,0.000000,0.100000
1035.062500,0.000000,0.000000,0.100000
1035.078125,0.000000,0.000000,0.100000
1035.093750,0.000000,0.000000,0.100000
1035.109375,0.000000,0.000000,0.100000
1035.125000,0.000000,0.000000,0.100000
1035.140625,0.000000,0.000000,0.100000
1035.156250,0.000000,0.000000,0.100000
1035.171875,0.000000,0.000000,0.100000
1035.187500,0.000000,0.000000,0.100000
1035.203125,0.000000,0.000000,0.100000
1035.218750,0.000000,0.000000,0.100000
1035.234375,0.000000,0.000000,0.100000
1035.250000,0.000000,0.000000,0.100000
1035.265625,0.000000,0.000000,0.100000
1035.281250,0.000000,0.000000,0.100000
1035.296875,0.000000,0.000000,0.100000
1035.312500,0.000000,0.000000,0.100000
1035.328125,0.000000,0.000000,0.100000
1035.343750,0.000000,0.000000,0.100000
1035.359375,0.000000,0.000000,0.100000
1035.375000,0.000000,0.000000,0.100000
1035.390625,0.000000,0.000000,0.100000
1035.406250,0.000000,0.000000,0.100000
1035.421875,0.000000,0.000000,0.100000
1035.437500,0.000000,0.000000,0.100000
1035.453125,0.000000,0.000000,0.100000
1035.468750,0.000000,0.000000,0.100000
1035.484375,0.000000,0.000000,0.100000
1035.500000,0.000000,0.000000,0.100000
1035.515625,0.000000,0.000000,0.100000
1035.531250,0.000000,0.000000,0.100000
1035.546875,0.000000,0.000000,0.100000
1035.562500,0.000000,0.000000,0.100000
1035.578125,0.000000,0.000000,0.100000
1035.593750,0.000000,0.000000,0.100000
1035.609375,0.000000,0.000000,0.100000
1035.625000,0.000000,0.000000,0.100000
1035.640625,0.000000,0.000000,0.100000
1035.656250,0.000000,0.000000,0.100000
1035.671875,0.000000,0.000000,0.100000
1035.687500,0.000000,0.000000,0.100000
1035.703125,0.000000,0.000000,0.100000
1035.718750,0.000000,0.000000,0.100000
1035.734375,0.000000,0.000000,0.100000
1035.750000,0.000000,0.000000,0.100000
1035.765625,0.000079,0.000079,0.100000
1035.781250,0.044792,0.044792,0.100000
1035.796875,0.164493,0.164493,0.100000
1035.812500,0.339462,0.339462,0.100000
1035.828125,0.540877,0.540877,0.100000
1035.843750,0.735558,0.735558,0.100000
1035.859375,0.891435,0.891435,0.100000
1035.875000,0.982831,0.982831,0.100000
1035.890625,0.994688,0.994688,0.100000
1035.906250,0.925055,0.925055,0.100000
1035.921875,0.785402,0.785402,0.100000
1035.937500,0.598733,0.598733,0.100000
1035.953125,0.395801,0.395801,0.100000
1035.968750,0.210033,0.210033,0.100000
1035.984375,0.072032,0.072032,0.100000
1036.000000,0.004531,0.004531,0.100000
1036.015625,0.000000,0.000000,0.100000
1036.031250,0.000000,0.000000,0.100000
1036.046875,0.000000,0.000000,0.100000
1036.062500,0.000000,0.000000,0.100000
1036.078125,0.000000,0.000000,0.100000
1036.093750,0.000000,0.000000,0.100000
1036.109375,0.000000,0.000000,0.100000
1036.125000,0.000000,0.000000,0.100000
1036.140625,0.000000,0.000000,0.100000
1036.156250,0.000000,0.000000,0.100000
1036.171875,0.000000,0.000000,0.100000
1036.187500,0.000000,0.000000,0.100000
1036.203125,0.000000,0.000000,0.100000
1036.218750,0.000000,0.000000,0.100000
1036.234375,0.000000,0.000000,0.100000
1036.250000,0.000000,0.000000,0.100000
1036.265625,0.000000,0.000000,0.100000
1036.281250,0.000000,0.000000,0.100000
1036.296875,0.000000,0.000000,0.100000
1036.312500,0.000000,0.000000,0.100000
1036.328125,0.000000,0.000000,0.100000
1036.343750,0.000000,0.000000,0.100000
1036.359375,0.000000,0.000000,0.100000
1036.375000,0.000000,0.000000,0.100000
1036.390625,0.000000,0.000000,0.100000
1036.406250,0.000000,0.000000,0.100000
1036.421875,0.000000,0.000000,0.100000
1036.437500,0.000000,0.000000,0.100000
1036.453125,0.000000,0.000000,0.100000
1036.468750,0.000000,0.000000,0.100000
1036.484375,0.000000,0.000000,0.100000
1036.500000,0.000000,0.000000,0.100000
1036.515625,0.000000,0.000000,0.100000
1036.531250,0.000000,0.000000,0.100000
1036.546875,0.000000,0.000000,0.100000
1036.562500,0.000000,0.000000,0.100000
1036.578125,0.000000,0.000000,0.100000
1036.593750,0.000000,0.000000,0.100000
1036.609375,0.000000,0.000000,0.100000
1036.625000,0.000000,0.000000,0.100000
1036.640625,0.000000,0.000000,0.100000
1036.656250,0.000000,0.000000,0.100000
1036.671875,0.000000,0.000000,0.100000
1036.687500,0.000000,0.000000,0.100000
1036.703125,0.000000,0.000000,0.100000
1036.718750,0.000000,0.000000,0.100000
1036.734375,0.012616,0.012616,0.100000
1036.750000,0.097118,0.097118,0.100000
1036.765625,0.247987,0.247987,0.100000
1036.781250,0.440370,0.440370,0.100000
1036.796875,0.642577,0.642577,0.100000
1036.812500,0.821296,0.821296,0.100000
1036.828125,0.947088,0.947088,0.100000
1036.843750,0.999230,0.999230,0.100000
1036.859375,0.969133,0.969133,0.100000
1036.875000,0.861755,0.861755,0.100000
1036.890625,0.694784,0.694784,0.100000
1036.906250,0.495726,0.495726,0.100000
1036.921875,0.297372,0.297372,0.100000
1036.937500,0.132397,0.132397,0.100000
1036.953125,0.027979,0.027979,0.100000
1036.968750,0.000000,0.000000,0.100000
1036.984375,0.000000,0.000000,0.100000
1037.000000,0.000000,0.000000,0.100000
1037.015625,0.000000,0.000000,0.100000
1037.031250,0.000000,0.000000,0.100000
1037.046875,0.000000,0.000000,0.100000
1037.062500,0.000000,0.000000,0.100000
1037.078125,0.000000,0.000000,0.100000
1037.093750,0.000000,0.000000,0.100000
1037.109375,0.000000,0.000000,0.100000
1037.125000,0.000000,0.000000,0.100000
1037.140625,0.000000,0.000000,0.100000
1037.156250,0.000000,0.000000,0.100000
1037.171875,0.000000,0.000000,0.100000
1037.187500,0.000000,0.000000,0.100000
1037.203125,0.000000,0.000000,0.100000
1037.218750,0.000000,0.000000,0.100000
1037.234375,0.000000,0.000000,0.100000
1037.250000,0.000000,0.000000,0.100000
1037.265625,0.000000,0.000000,0.100000
1037.281250,0.000000,0.000000,0.100000
1037.296875,0.000000,0.000000,0.100000
1037.312500,0.000000,0.000000,0.100000
1037.328125,0.000000,0.000000,0.100000
1037.343750,0.000000,0.000000,0.100000
1037.359375,0.000000,0.000000,0.100000
1037.375000,0.000000,0.000000,0.100000
1037.390625,0.000000,0.000000,0.100000
1037.406250,0.000000,0.000000,0.100000
1037.421875,0.000000,0.000000,0.100000
1037.437500,0.000000,0.000000,0.100000
1037.453125,0.000000,0.000000,0.100000
1037.468750,0.000000,0.000000,0.100000
1037.484375,0.000000,0.000000,0.100000
1037.500000,0.000000,0.000000,0.100000
1037.515625,0.000000,0.000000,0.100000
1037.531250,0.000000,0.000000,0.100000
1037.546875,0.000000,0.000000,0.100000
1037.562500,0.000000,0.000000,0.100000
1037.578125,0.000000,0.000000,0.100000
1037.593750,0.000000,0.000000,0.100000
1037.609375,0.000000,0.000000,0.100000
1037.625000,0.000000,0.000000,0.100000
1037.640625,0.000000,0.000000,0.100000
1037.656250,0.000000,0.000000,0.100000
1037.671875,0.000000,0.000000,0.100000
1037.687500,0.000141,0.000141,0.100000
1037.703125,0.046027,0.046027,0.100000
1037.718750,0.166698,0.166698,0.100000
1037.734375,0.342274,0.342274,0.100000
1037.750000,0.543832,0.543832,0.100000
1037.765625,0.738170,0.738170,0.100000
1037.781250,0.893274,0.893274,0.100000
1037.796875,0.983593,0.983593,0.100000
1037.812500,0.994248,0.994248,0.100000
1037.828125,0.923486,0.923486,0.100000
1037.843750,0.782961,0.782961,0.100000
1037.859375,0.595824,0.595824,0.100000
1037.875000,0.392901,0.392901,0.100000
1037.890625,0.207621,0.207621,0.100000
1037.906250,0.070505,0.070505,0.100000
1037.921875,0.004141,0.004141,0.100000
1037.937500,0.000000,0.000000,0.100000
1037.953125,0.000000,0.000000,0.100000
1037.968750,0.000000,0.000000,0.100000
1037.984375,0.000000,0.000000,0.100000
1038.000000,0.000000,0.000000,0.100000
1038.015625,0.000000,0.000000,0.100000
1038.031250,0.000000,0.000000,0.100000
1038.046875,0.000000,0.000000,0.100000
1038.062500,0.000000,0.000000,0.100000
1038.078125,0.000000,0.000000,0.100000
1038.093750,0.000000,0.000000,0.100000
1038.109375,0.000000,0.000000,0.100000
1038.125000,0.000000,0.000000,0.100000
1038.140625,0.000000,0.000000,0.100000
1038.156250,0.000000,0.000000,0.100000
1038.171875,0.000000,0.000000,0.100000
1038.187500,0.000000,0.000000,0.100000
1038.203125,0.000000,0.000000,0.100000
1038.218750,0.000000,0.000000,0.100000
1038.234375,0.000000,0.000000,0.100000
1038.250000,0.000000,0.000000,0.100000
1038.265625,0.000000,0.000000,0.100000
1038.281250,0.000000,0.000000,0.100000
1038.296875,0.000000,0.000000,0.100000
1038.312500,0.000000,0.000000,0.100000
1038.328125,0.000000,0.000000,0.100000
1038.343750,0.000000,0.000000,0.100000
1038.359375,0.000000,0.000000,0.100000
1038.375000,0.000000,0.000000,0.100000
1038.390625,0.000000,0.000000,0.100000
1038.406250,0.000000,0.000000,0.100000
1038.421875,0.000000,0.000000,0.100000
1038.437500,0.000000,0.000000,0.100000
1038.453125,0.000000,0.000000,0.100000
1038.468750,0.000000,0.000000,0.100000
1038.484375,0.000000,0.000000,0.100000
1038.500000,0.000000,0.000000,0.100000
1038.515625,0.000000,0.000000,0.100000
1038.531250,0.000000,0.000000,0.100000
1038.546875,0.000000,0.000000,0.100000
1038.562500,0.000000,0.000000,0.100000
1038.578125,0.000000,0.000000,0.100000
1038.593750,0.000000,0.000000,0.100000
1038.609375,0.000000,0.000000,0.100000
1038.625000,0.000000,0.000000,0.100000
1038.640625,0.000000,0.000000,0.100000
1038.656250,0.013287,0.013287,0.100000
1038.671875,0.098882,0.098882,0.100000
1038.687500,0.250553,0.250553,0.100000
1038.703125,0.443316,0.443316,0.100000
1038.718750,0.645417,0.645417,0.100000
1038.734375,0.823563,0.823563,0.100000
1038.750000,0.948408,0.948408,0.100000
1038.765625,0.999386,0.999386,0.100000
1038.781250,0.968099,0.968099,0.100000
1038.796875,0.859701,0.859701,0.100000
1038.812500,0.692048,0.692048,0.100000
1038.828125,0.492760,0.492760,0.100000
1038.843750,0.294663,0.294663,0.100000
1038.859375,0.130393,0.130393,0.100000
1038.875000,0.027008,0.027008,0.100000
1038.890625,0.000000,0.000000,0.100000
1038.906250,0.000000,0.000000,0.100000
1038.921875,0.000000,0.000000,0.100000
1038.937500,0.000000,0.000000,0.100000
1038.953125,0.000000,0.000000,0.100000
1038.968750,0.000000,0.000000,0.100000
1038.984375,0.000000,0.000000,0.100000
1039.000000,0.000000,0.000000,0.100000
1039.015625,0.000000,0.000000,0.100000
1039.031250,0.000000,0.000000,0.100000
1039.046875,0.000000,0.000000,0.100000
1039.062500,0.000000,0.000000,0.100000
1039.078125,0.000000,0.000000,0.100000
1039.093750,0.000000,0.000000,0.100000
1039.109375,0.000000,0.000000,0.100000
1039.125000,0.000000,0.000000,0.100000
1039.140625,0.000000,0.000000,0.100000
1039.156250,0.000000,0.000000,0.100000
1039.171875,0.000000,0.000000,0.100000
1039.187500,0.000000,0.000000,0.100000
1039.203125,0.000000,0.000000,0.100000
1039.218750,0.000000,0.000000,0.100000
1039.234375,0.000000,0.000000,0.100000
1039.250000,0.000000,0.000000,0.100000
1039.265625,0.000000,0.000000,0.100000
1039.281250,0.000000,0.000000,0.100000
1039.296875,0.000000,0.000000,0.100000
1039.312500,0.000000,0.000000,0.100000
1039.328125,0.000000,0.000000,0.100000
1039.343750,0.000000,0.000000,0.100000
1039.359375,0.000000,0.000000,0.100000
1039.375000,0.000000,0.000000,0.100000
1039.390625,0.000000,0.000000,0.100000
1039.406250,0.000000,0.000000,0.100000
1039.421875,0.000000,0.000000,0.100000
1039.437500,0.000000,0.000000,0.100000
1039.453125,0.000000,0.000000,0.100000
1039.468750,0.000000,0.000000,0.100000
1039.484375,0.000000,0.000000,0.100000
1039.500000,0.000000,0.000000,0.100000
1039.515625,0.000000,0.000000,0.100000
1039.531250,0.000000,0.000000,0.100000
1039.546875,0.000000,0.000000,0.100000
1039.562500,0.000000,0.000000,0.100000
1039.578125,0.000000,0.000000,0.100000
1039.593750,0.000000,0.000000,0.100000
1039.609375,0.000220,0.000220,0.100000
1039.625000,0.047279,0.047279,0.100000
1039.640625,0.168915,0.168915,0.100000
1039.656250,0.345092,0.345092,0.100000
1039.671875,0.546787,0.546787,0.100000
1039.687500,0.740774,0.740774,0.100000
1039.703125,0.895099,0.895099,0.100000
1039.718750,0.984338,0.984338,0.100000
1039.734375,0.993791,0.993791,0.100000
1039.750000,0.921901,0.921901,0.100000
1039.765625,0.780510,0.780510,0.100000
1039.781250,0.592911,0.592911,0.100000
1039.796875,0.390006,0.390006,0.100000
1039.812500,0.205220,0.205220,0.100000
1039.828125,0.068994,0.068994,0.100000
1039.843750,0.003769,0.003769,0.100000
1039.859375,0.000000,0.000000,0.100000
1039.875000,0.000000,0.000000,0.100000
1039.890625,0.000000,0.000000,0.100000
1039.906250,0.000000,0.000000,0.100000
1039.921875,0.000000,0.000000,0.100000
1039.937500,0.000000,0.000000,0.100000
1039.953125,0.000000,0.000000,0.100000
1039.968750,0.000000,0.000000,0.100000
1039.984375,0.000000,0.000000,0.100000
1040.000000,0.000000,0.000000,0.100000
1040.015625,0.000000,0.000000,0.100000
1040.031250,0.000000,0.000000,0.100000
1040.046875,0.000000,0.000000,0.100000
1040.062500,0.000000,0.000000,0.100000
1040.078125,0.000000,0.000000,0.100000
1040.093750,0.000000,0.000000,0.100000
1040.109375,0.000000,0.000000,0.100000
1040.125000,0.000000,0.000000,0.100000
1040.140625,0.000000,0.000000,0.100000
1040.156250,0.000000,0.000000,0.100000
1040.171875,0.000000,0.000000,0.100000
1040.187500,0.000000,0.000000,0.100000
1040.203125,0.000000,0.000000,0.100000
1040.218750,0.000000,0.000000,0.100000
1040.234375,0.000000,0.000000,0.100000
1040.250000,0.000000,0.000000,0.100000
1040.265625,0.000000,0.000000,0.100000
1040.281250,0.000000,0.000000,0.100000
1040.296875,0.000000,0.000000,0.100000
1040.312500,0.000000,0.000000,0.100000
1040.328125,0.000000,0.000000,0.100000
1040.343750,0.000000,0.000000,0.100000
1040.359375,0.000000,0.000000,0.100000
1040.375000,0.000000,0.000000,0.100000
1040.390625,0.000000,0.000000,0.100000
1040.406250,0.000000,0.000000,0.100000
1040.421875,0.000000,0.000000,0.100000
1040.437500,0.000000,0.000000,0.100000
1040.453125,0.000000,0.000000,0.100000
1040.468750,0.000000,0.000000,0.100000
1040.484375,0.000000,0.000000,0.100000
1040.500000,0.000000,0.000000,0.100000
1040.515625,0.000000,0.000000,0.100000
1040.531250,0.000000,0.000000,0.100000
1040.546875,0.000000,0.000000,0.100000
1040.562500,0.000000,0.000000,0.100000
1040.578125,0.013975,0.013975,0.100000
1040.593750,0.100659,0.100659,0.100000
1040.609375,0.253128,0.253128,0.100000
1040.625000,0.446265,0.446265,0.100000
1040.640625,0.648253,0.648253,0.100000
1040.656250,0.825819,0.825819,0.100000
1040.671875,0.949713,0.949713,0.100000
1040.687500,0.999524,0.999524,0.100000
1040.703125,0.967048,0.967048,0.100000
1040.718750,0.857634,0.857634,0.100000
1040.734375,0.689306,0.689306,0.100000
1040.750000,0.489794,0.489794,0.100000
1040.765625,0.291962,0.291962,0.100000
1040.781250,0.128402,0.128402,0.100000
1040.796875,0.026055,0.026055,0.100000
1040.812500,0.000000,0.000000,0.100000
1040.828125,0.000000,0.000000,0.100000
1040.843750,0.000000,0.000000,0.100000
1040.859375,0.000000,0.000000,0.100000
1040.875000,0.000000,0.000000,0.100000
1040.890625,0.000000,0.000000,0.100000
1040.906250,0.000000,0.000000,0.100000
1040.921875,0.000000,0.000000,0.100000
1040.937500,0.000000,0.000000,0.100000
1040.953125,0.000000,0.000000,0.100000
1040.968750,0.000000,0.000000,0.100000
1040.984375,0.000000,0.000000,0.100000
1041.000000,0.000000,0.000000,0.100000
1041.015625,0.000000,0.000000,0.100000
1041.031250,0.000000,0.000000,0.100000
1041.046875,0.000000,0.000000,0.100000
1041.062500,0.000000,0.000000,0.100000
1041.078125,0.000000,0.000000,0.100000
1041.093750,0.000000,0.000000,0.100000
1041.109375,0.000000,0.000000,0.100000
1041.125000,0.000000,0.000000,0.100000
1041.140625,0.000000,0.000000,0.100000
1041.156250,0.000000,0.000000,0.100000
1041.171875,0.000000,0.000000,0.100000
1041.187500,0.000000,0.000000,0.100000
1041.203125,0.000000,0.000000,0.100000
1041.218750,0.000000,0.000000,0.100000
1041.234375,0.000000,0.000000,0.100000
1041.250000,0.000000,0.000000,0.100000
1041.265625,0.000000,0.000000,0.100000
1041.281250,0.000000,0.000000,0.100000
1041.296875,0.000000,0.000000,0.100000
1041.312500,0.000000,0.000000,0.100000
1041.328125,0.000000,0.000000,0.100000
1041.343750,0.000000,0.000000,0.100000
1041.359375,0.000000,0.000000,0.100000
1041.375000,0.000000,0.000000,0.100000
1041.390625,0.000000,0.000000,0.100000
1041.406250,0.000000,0.000000,0.100000
1041.421875,0.000000,0.000000,0.100000
1041.437500,0.000000,0.000000,0.100000
1041.453125,0.000000,0.000000,0.100000
1041.468750,0.000000,0.000000,0.100000
1041.484375,0.000000,0.000000,0.100000
1041.500000,0.000000,0.000000,0.100000
1041.515625,0.000000,0.000000,0.100000
1041.531250,0.000317,0.000317,0.100000
1041.546875,0.048546,0.048546,0.100000
1041.562500,0.171144,0.171144,0.100000
1041.578125,0.347915,0.347915,0.100000
1041.593750,0.549739,0.549739,0.100000
1041.609375,0.743370,0.743370,0.100000
1041.625000,0.896910,0.896910,0.100000
1041.640625,0.985066,0.985066,0.100000
1041.656250,0.993316,0.993316,0.100000
1041.671875,0.920302,0.920302,0.100000
1041.687500,0.778050,0.778050,0.100000
1041.703125,0.589994,0.589994,0.100000
1041.718750,0.387114,0.387114,0.100000
1041.734375,0.202829,0.202829,0.100000
1041.750000,0.067498,0.067498,0.100000
1041.765625,0.003414,0.003414,0.100000
1041.781250,0.000000,0.000000,0.100000
1041.796875,0.000000,0.000000,0.100000
1041.812500,0.000000,0.000000,0.100000
1041.828125,0.000000,0.000000,0.100000
1041.843750,0.000000,0.000000,0.100000
1041.859375,0.000000,0.000000,0.100000
1041.875000,0.000000,0.000000,0.100000
1041.890625,0.000000,0.000000,0.100000
1041.906250,0.000000,0.000000,0.100000
1041.921875,0.000000,0.000000,0.100000
1041.937500,0.000000,0.000000,0.100000
1041.953125,0.000000,0.000000,0.100000
1041.968750,0.000000,0.000000,0.100000
1041.984375,0.000000,0.000000,0.100000
1042.000000,0.000000,0.000000,0.100000
1042.015625,0.000000,0.000000,0.100000
1042.031250,0.000000,0.000000,0.100000
1042.046875,0.000000,0.000000,0.100000
1042.062500,0.000000,0.000000,0.100000
1042.078125,0.000000,0.000000,0.100000
1042.093750,0.000000,0.000000,0.100000
1042.109375,0.000000,0.000000,0.100000
1042.125000,0.000000,0.000000,0.100000
1042.140625,0.000000,0.000000,0.100000
1042.156250,0.000000,0.000000,0.100000
1042.171875,0.000000,0.000000,0.100000
1042.187500,0.000000,0.000000,0.100000
1042.203125,0.000000,0.000000,0.100000
1042.218750,0.000000,0.000000,0.100000
1042.234375,0.000000,0.000000,0.100000
1042.250000,0.000000,0.000000,0.100000
1042.265625,0.000000,0.000000,0.100000
1042.281250,0.000000,0.000000,0.100000
1042.296875,0.000000,0.000000,0.100000
1042.312500,0.000000,0.000000,0.100000
1042.328125,0.000000,0.000000,0.100000
1042.343750,0.000000,0.000000,0.100000
1042.359375,0.000000,0.000000,0.100000
1042.375000,0.000000,0.000000,0.100000
1042.390625,0.000000,0.000000,0.100000
1042.406250,0.000000,0.000000,0.100000
1042.421875,0.000000,0.000000,0.100000
1042.437500,0.000000,0.000000,0.100000
1042.453125,0.000000,0.000000,0.100000
1042.468750,0.000000,0.000000,0.100000
1042.484375,0.000000,0.000000,0.100000
1042.500000,0.014680,0.014680,0.100000
1042.515625,0.102452,0.102452,0.100000
1042.531250,0.255712,0.255712,0.100000
1042.546875,0.449215,0.449215,0.100000
1042.562500,0.651083,0.651083,0.100000
1042.578125,0.828064,0.828064,0.100000
1042.593750,0.951001,0.951001,0.100000
1042.609375,0.999645,0.999645,0.100000
1042.625000,0.965981,0.965981,0.100000
1042.640625,0.855555,0.855555,0.100000
1042.656250,0.686557,0.686557,0.100000
1042.671875,0.486828,0.486828,0.100000
1042.687500,0.289269,0.289269,0.100000
1042.703125,0.126423,0.126423,0.100000
1042.718750,0.025118,0.025118,0.100000
1042.734375,0.000000,0.000000,0.100000
1042.750000,0.000000,0.000000,0.100000
1042.765625,0.000000,0.000000,0.100000
1042.781250,0.000000,0.000000,0.100000
1042.796875,0.000000,0.000000,0.100000
1042.812500,0.000000,0.000000,0.100000
1042.828125,0.000000,0.000000,0.100000
1042.843750,0.000000,0.000000,0.100000
1042.859375,0.000000,0.000000,0.100000
1042.875000,0.000000,0.000000,0.100000
1042.890625,0.000000,0.000000,0.100000
1042.906250,0.000000,0.000000,0.100000
1042.921875,0.000000,0.000000,0.100000
1042.937500,0.000000,0.000000,0.100000
1042.953125,0.000000,0.000000,0.100000
1042.968750,0.000000,0.000000,0.100000
1042.984375,0.000000,0.000000,0.100000
1043.000000,0.000000,0.000000,0.100000
1043.015625,0.000000,0.000000,0.100000
1043.031250,0.000000,0.000000,0.100000
1043.046875,0.000000,0.000000,0.100000
1043.062500,0.000000,0.000000,0.100000
1043.078125,0.000000,0.000000,0.100000
1043.093750,0.000000,0.000000,0.100000
1043.109375,0.000000,0.000000,0.100000
1043.125000,0.000000,0.000000,0.100000
1043.140625,0.000000,0.000000,0.100000
1043.156250,0.000000,0.000000,0.100000
1043.171875,0.000000,0.000000,0.100000
1043.187500,0.000000,0.000000,0.100000
1043.203125,0.000000,0.000000,0.100000
1043.218750,0.000000,0.000000,0.100000
1043.234375,0.000000,0.000000,0.100000
1043.250000,0.000000,0.000000,0.100000
1043.265625,0.000000,0.000000,0.100000
1043.281250,0.000000,0.000000,0.100000
1043.296875,0.000000,0.000000,0.100000
1043.312500,0.000000,0.000000,0.100000
1043.328125,0.000000,0.000000,0.100000
1043.343750,0.000000,0.000000,0.100000
1043.359375,0.000000,0.000000,0.100000
1043.375000,0.000000,0.000000,0.100000
1043.390625,0.000000,0.000000,0.100000
1043.406250,0.000000,0.000000,0.100000
1043.421875,0.000000,0.000000,0.100000
1043.437500,0.000000,0.000000,0.100000
1043.453125,0.000431,0.000431,0.100000
1043.468750,0.049829,0.049829,0.100000
1043.484375,0.173384,0.173384,0.100000
1043.500000,0.350743,0.350743,0.100000
1043.515625,0.552690,0.552690,0.100000
1043.531250,0.745957,0.745957,0.100000
1043.546875,0.898707,0.898707,0.100000
1043.562500,0.985777,0.985777,0.100000
1043.578125,0.992824,0.992824,0.100000
1043.593750,0.918688,0.918688,0.100000
1043.609375,0.775580,0.775580,0.100000
1043.625000,0.587075,0.587075,0.100000
1043.640625,0.384226,0.384226,0.100000
1043.656250,0.200449,0.200449,0.100000
1043.671875,0.066017,0.066017,0.100000
1043.687500,0.003077,0.003077,0.100000
1043.703125,0.000000,0.000000,0.100000
1043.718750,0.000000,0.000000,0.100000
1043.734375,0.000000,0.000000,0.100000
1043.750000,0.000000,0.000000,0.100000
1043.765625,0.000000,0.000000,0.100000
1043.781250,0.000000,0.000000,0.100000
1043.796875,0.000000,0.000000,0.100000
1043.812500,0.000000,0.000000,0.100000
1043.828125,0.000000,0.000000,0.100000
1043.843750,0.000000,0.000000,0.100000
1043.859375,0.000000,0.000000,0.100000
1043.875000,0.000000,0.000000,0.100000
1043.890625,0.000000,0.000000,0.100000
1043.906250,0.000000,0.000000,0.100000
1043.921875,0.000000,0.000000,0.100000
1043.937500,0.000000,0.000000,0.100000
1043.953125,0.000000,0.000000,0.100000
1043.968750,0.000000,0.000000,0.100000
1043.984375,0.000000,0.000000,0.100000
1044.000000,0.000000,0.000000,0.100000
1044.015625,0.000000,0.000000,0.100000
1044.031250,0.000000,0.000000,0.100000
1044.046875,0.000000,0.000000,0.100000
1044.062500,0.000000,0.000000,0.100000
1044.078125,0.000000,0.000000,0.100000
1044.093750,0.000000,0.000000,0.100000
1044.109375,0.000000,0.000000,0.100000
1044.125000,0.000000,0.000000,0.100000
1044.140625,0.000000,0.000000,0.100000
1044.156250,0.000000,0.000000,0.100000
1044.171875,0.000000,0.000000,0.100000
1044.187500,0.000000,0.000000,0.100000
1044.203125,0.000000,0.000000,0.100000
1044.218750,0.000000,0.000000,0.100000
1044.234375,0.000000,0.000000,0.100000
1044.250000,0.000000,0.000000,0.100000
1044.265625,0.000000,0.000000,0.100000
1044.281250,0.000000,0.000000,0.100000
1044.296875,0.000000,0.000000,0.100000
1044.312500,0.000000,0.000000,0.100000
1044.328125,0.000000,0.000000,0.100000
1044.343750,0.000000,0.000000,0.100000
1044.359375,0.000000,0.000000,0.100000
1044.375000,0.000000,0.000000,0.100000
1044.390625,0.000000,0.000000,0.100000
1044.406250,0.000000,0.000000,0.100000
1044.421875,0.015402,0.015402,0.100000
1044.437500,0.104258,0.104258,0.100000
1044.453125,0.258305,0.258305,0.100000
1044.468750,0.452167,0.452167,0.100000
1044.484375,0.653908,0.653908,0.100000
1044.500000,0.830296,0.830296,0.100000
1044.515625,0.952274,0.952274,0.100000
1044.531250,0.999748,0.999748,0.100000
1044.546875,0.964897,0.964897,0.100000
1044.562500,0.853463,0.853463,0.100000
1044.578125,0.683802,0.683802,0.100000
1044.593750,0.483863,0.483863,0.100000
1044.609375,0.286582,0.286582,0.100000
1044.625000,0.124458,0.124458,0.100000
1044.640625,0.024198,0.024198,0.100000
1044.656250,0.000000,0.000000,0.100000
1044.671875,0.000000,0.000000,0.100000
1044.687500,0.000000,0.000000,0.100000
1044.703125,0.000000,0.000000,0.100000
1044.718750,0.000000,0.000000,0.100000
1044.734375,0.000000,0.000000,0.100000
1044.750000,0.000000,0.000000,0.100000
1044.765625,0.000000,0.000000,0.100000
1044.781250,0.000000,0.000000,0.100000
1044.796875,0.000000,0.000000,0.100000
1044.812500,0.000000,0.000000,0.100000
1044.828125,0.000000,0.000000,0.100000
1044.843750,0.000000,0.000000,0.100000
1044.859375,0.000000,0.000000,0.100000
1044.875000,0.000000,0.000000,0.100000
1044.890625,0.000000,0.000000,0.100000
1044.906250,0.000000,0.000000,0.100000
1044.921875,0.000000,0.000000,0.100000
1044.937500,0.000000,0.000000,0.100000
1044.953125,0.000000,0.000000,0.100000
1044.968750,0.000000,0.000000,0.100000
1044.984375,0.000000,0.000000,0.100000
1045.000000,0.000000,0.000000,0.100000
1045.015625,0.000000,0.000000,0.100000
1045.031250,0.000000,0.000000,0.100000
1045.046875,0.000000,0.000000,0.100000
1045.062500,0.000000,0.000000,0.100000
1045.078125,0.000000,0.000000,0.100000
1045.093750,0.000000,0.000000,0.100000
1045.109375,0.000000,0.000000,0.100000
1045.125000,0.000000,0.000000,0.100000
1045.140625,0.000000,0.000000,0.100000
1045.156250,0.000000,0.000000,0.100000
1045.171875,0.000000,0.000000,0.100000
1045.187500,0.000000,0.000000,0.100000
1045.203125,0.000000,0.000000,0.100000
1045.218750,0.000000,0.000000,0.100000
1045.234375,0.000000,0.000000,0.100000
1045.250000,0.000000,0.000000,0.100000
1045.265625,0.000000,0.000000,0.100000
1045.281250,0.000000,0.000000,0.100000
1045.296875,0.000000,0.000000,0.100000
1045.312500,0.000000,0.000000,0.100000
1045.328125,0.000000,0.000000,0.100000
1045.343750,0.000000,0.000000,0.100000
1045.359375,0.000000,0.000000,0.100000
1045.375000,0.000563,0.000563,0.100000
1045.390625,0.051127,0.051127,0.100000
1045.406250,0.175636,0.175636,0.100000
1045.421875,0.353577,0.353577,0.100000
1045.437500,0.555639,0.555639,0.100000
1045.453125,0.748535,0.748535,0.100000
1045.468750,0.900490,0.900490,0.100000
1045.484375,0.986471,0.986471,0.100000
1045.500000,0.992315,0.992315,0.100000
1045.515625,0.917059,0.917059,0.100000
1045.531250,0.773100,0.773100,0.100000
1045.546875,0.584152,0.584152,0.100000
1045.562500,0.381342,0.381342,0.100000
1045.578125,0.198079,0.198079,0.100000
1045.593750,0.064552,0.064552,0.100000
1045.609375,0.002757,0.002757,0.100000
1045.625000,0.000000,0.000000,0.100000
1045.640625,0.000000,0.000000,0.100000
1045.656250,0.000000,0.000000,0.100000
1045.671875,0.000000,0.000000,0.100000
1045.687500,0.000000,0.000000,0.100000
1045.703125,0.000000,0.000000,0.100000
1045.718750,0.000000,0.000000,0.100000
1045.734375,0.000000,0.000000,0.100000
1045.750000,0.000000,0.000000,0.100000
1045.765625,0.000000,0.000000,0.100000
1045.781250,0.000000,0.000000,0.100000
1045.796875,0.000000,0.000000,0.100000
1045.812500,0.000000,0.000000,0.100000
1045.828125,0.000000,0.000000,0.100000
1045.843750,0.000000,0.000000,0.100000
1045.859375,0.000000,0.000000,0.100000
1045.875000,0.000000,0.000000,0.100000
1045.890625,0.000000,0.000000,0.100000
1045.906250,0.000000,0.000000,0.100000
1045.921875,0.000000,0.000000,0.100000
1045.937500,0.000000,0.000000,0.100000
1045.953125,0.000000,0.000000,0.100000
1045.968750,0.000000,0.000000,0.100000
1045.984375,0.000000,0.000000,0.100000
1046.000000,0.000000,0.000000,0.100000
1046.015625,0.000000,0.000000,0.100000
1046.031250,0.000000,0.000000,0.100000
1046.046875,0.000000,0.000000,0.100000
1046.062500,0.000000,0.000000,0.100000
1046.078125,0.000000,0.000000,0.100000
1046.093750,0.000000,0.000000,0.100000
1046.109375,0.000000,0.000000,0.100000
1046.125000,0.000000,0.000000,0.100000
1046.140625,0.000000,0.000000,0.100000
1046.156250,0.000000,0.000000,0.100000
1046.171875,0.000000,0.000000,0.100000
1046.187500,0.000000,0.000000,0.100000
1046.203125,0.000000,0.000000,0.100000
1046.218750,0.000000,0.000000,0.100000
1046.234375,0.000000,0.000000,0.100000
1046.250000,0.000000,0.000000,0.100000
1046.265625,0.000000,0.000000,0.100000
1046.281250,0.000000,0.000000,0.100000
1046.296875,0.000000,0.000000,0.100000
1046.312500,0.000000,0.000000,0.100000
1046.328125,0.000000,0.000000,0.100000
1046.343750,0.016141,0.016141,0.100000
1046.359375,0.106078,0.106078,0.100000
1046.375000,0.260906,0.260906,0.100000
1046.390625,0.455120,0.455120,0.100000
1046.406250,0.656728,0.656728,0.100000
1046.421875,0.832518,0.832518,0.100000
1046.437500,0.953531,0.953531,0.100000
1046.453125,0.999833,0.999833,0.100000
1046.468750,0.963797,0.963797,0.100000
1046.484375,0.851358,0.851358,0.100000
1046.500000,0.681040,0.681040,0.100000
1046.515625,0.480898,0.480898,0.100000
1046.531250,0.283904,0.283904,0.100000
1046.546875,0.122507,0.122507,0.100000
1046.562500,0.023295,0.023295,0.100000
1046.578125,0.000000,0.000000,0.100000
1046.593750,0.000000,0.000000,0.100000
1046.609375,0.000000,0.000000,0.100000
1046.625000,0.000000,0.000000,0.100000
1046.640625,0.000000,0.000000,0.100000
1046.656250,0.000000,0.000000,0.100000
1046.671875,0.000000,0.000000,0.100000
1046.687500,0.000000,0.000000,0.100000
1046.703125,0.000000,0.000000,0.100000
1046.718750,0.000000,0.000000,0.100000
1046.734375,0.000000,0.000000,0.100000
1046.750000,0.000000,0.000000,0.100000
1046.765625,0.000000,0.000000,0.100000
1046.781250,0.000000,0.000000,0.100000
1046.796875,0.000000,0.000000,0.100000
1046.812500,0.000000,0.000000,0.100000
1046.828125,0.000000,0.000000,0.100000
1046.843750,0.000000,0.000000,0.100000
1046.859375,0.000000,0.000000,0.100000
1046.875000,0.000000,0.000000,0.100000
1046.890625,0.000000,0.000000,0.100000
1046.906250,0.000000,0.000000,0.100000
1046.921875,0.000000,0.000000,0.100000
1046.937500,0.000000,0.000000,0.100000
1046.953125,0.000000,0.000000,0.100000
1046.968750,0.000000,0.000000,0.100000
1046.984375,0.000000,0.000000,0.100000
1047.000000,0.000000,0.000000,0.100000
1047.015625,0.000000,0.000000,0.100000
1047.031250,0.000000,0.000000,0.100000
1047.046875,0.000000,0.000000,0.100000
1047.062500,0.000000,0.000000,0.100000
1047.078125,0.000000,0.000000,0.100000
1047.093750,0.000000,0.000000,0.100000
1047.109375,0.000000,0.000000,0.100000
1047.125000,0.000000,0.000000,0.100000
1047.140625,0.000000,0.000000,0.100000
1047.156250,0.000000,0.000000,0.100000
1047.171875,0.000000,0.000000,0.100000
1047.187500,0.000000,0.000000,0.100000
1047.203125,0.000000,0.000000,0.100000
1047.218750,0.000000,0.000000,0.100000
1047.234375,0.000000,0.000000,0.100000
1047.250000,0.000000,0.000000,0.100000
1047.265625,0.000000,0.000000,0.100000
1047.281250,0.000000,0.000000,0.100000
1047.296875,0.000713,0.000713,0.100000
1047.312500,0.052442,0.052442,0.100000
1047.328125,0.177899,0.177899,0.100000
1047.343750,0.356416,0.356416,0.100000
1047.359375,0.558586,0.558586,0.100000
1047.375000,0.751105,0.751105,0.100000
1047.390625,0.902259,0.902259,0.100000
1047.406250,0.987148,0.987148,0.100000
1047.421875,0.991788,0.991788,0.100000
1047.437500,0.915415,0.915415,0.100000
1047.453125,0.770610,0.770610,0.100000
1047.468750,0.581227,0.581227,0.100000
1047.484375,0.378463,0.378463,0.100000
1047.500000,0.195720,0.195720,0.100000
1047.515625,0.063102,0.063102,0.100000
1047.531250,0.002455,0.002455,0.100000
1047.546875,0.000000,0.000000,0.100000
1047.562500,0.000000,0.000000,0.100000
1047.578125,0.000000,0.000000,0.100000
1047.593750,0.000000,0.000000,0.100000
1047.609375,0.000000,0.000000,0.100000
1047.625000,0.000000,0.000000,0.100000
1047.640625,0.000000,0.000000,0.100000
1047.656250,0.000000,0.000000,0.100000
1047.671875,0.000000,0.000000,0.100000
1047.687500,0.000000,0.000000,0.100000
1047.703125,0.000000,0.000000,0.100000
1047.718750,0.000000,0.000000,0.100000
1047.734375,0.000000,0.000000,0.100000
1047.750000,0.000000,0.000000,0.100000
1047.765625,0.000000,0.000000,0.100000
1047.781250,0.000000,0.000000,0.100000
1047.796875,0.000000,0.000000,0.100000
1047.812500,0.000000,0.000000,0.100000
1047.828125,0.000000,0.000000,0.100000
1047.843750,0.000000,0.000000,0.100000
1047.859375,0.000000,0.000000,0.100000
1047.875000,0.000000,0.000000,0.100000
1047.890625,0.000000,0.000000,0.100000
1047.906250,0.000000,0.000000,0.100000
1047.921875,0.000000,0.000000,0.100000
1047.937500,0.000000,0.000000,0.100000
1047.953125,0.000000,0.000000,0.100000
1047.968750,0.000000,0.000000,0.100000
1047.984375,0.000000,0.000000,0.100000
1048.000000,0.000000,0.000000,0.100000
1048.015625,0.000000,0.000000,0.100000
1048.031250,0.000000,0.000000,0.100000
